1,0.024133,0.016065,0.044639,0.031001,-0.009473,-0.042663,-0.077283,-0.091508,-0.046113999999999995,-0.005557,0.001369,-0.040256,-0.08542899999999999,-0.044213,-0.065613,-0.10822999999999999,-0.10295,-0.087675,-0.004829,-0.041969,-0.071552,0.057880999999999995,0.083307,0.024707,0.076331,0.2086,0.26204,0.28365,0.37499,0.40995,0.37167,0.4176,0.50961,0.5725,0.6091,0.59336,0.59685,0.6161800000000001,0.63998,0.69311,0.66605,0.6363800000000001,0.75174,0.8208700000000001,0.7208,0.72364,0.88954,0.92729,0.8368700000000001,0.7951699999999999,0.82096,0.87426,0.9001100000000001,0.91099,0.9269799999999999,0.89451,0.8802700000000001,0.9331,0.96691,1.0155,1.0162,0.9648200000000001,1.0347,1.1228,1.1301,1.1012,1.1219,1.1331,1.1066,1.1404,1.0099,0.85344,0.91394,0.91041,0.82183,0.73314,0.5715399999999999,0.46636000000000005,0.34979,0.16297999999999999,0.22068000000000002,0.37648000000000004,0.28946,-0.049293000000000003,-0.48335,-0.8866700000000001,-1.3888,-1.9245,-2.4118,-2.9064,-3.0809,-2.608,-1.5843,-0.28463,0.76478,1.0493,0.21606999999999998,-0.83111,-1.8152,-2.7322,-3.1405,-3.145,-3.0709,-2.7918,-2.3049,-1.7339,-1.2843,-1.1073,-0.9881700000000001,-0.8449700000000001,-0.50698,-0.17027,-0.10497000000000001,-0.013894,-0.027627,-0.10547000000000001,-0.068411,-0.10893,-0.13224,-0.0067280000000000005,0.08810499999999999,-0.01385,-0.049356,0.022604,-0.011681,-0.015244,-0.039597,-0.011931,0.06776900000000001,0.025508000000000003,0.051275,0.06124400000000001,0.053409000000000005,0.12092,0.081996,0.039526,0.073486,0.020875,-0.018836000000000002,0.030808999999999996
0,0.42438000000000003,0.34442,0.34813,0.34017,0.24336999999999998,0.24173000000000003,0.26878,0.27342,0.35644000000000003,0.50588,0.76462,0.9711799999999999,1.169,1.2241,1.3859,1.6259,1.6045,1.5924,1.4498,1.1538,1.1479,0.89389,0.74647,0.48746000000000006,0.1663,-0.13912,-0.25847,-0.2256,-0.34019,-0.30136999999999997,-0.24156999999999998,-0.24724000000000002,-0.25468,-0.3823,-0.26248,-0.19430999999999998,-0.15808,-0.17894000000000002,-0.19701,-0.14315999999999998,0.045271,0.48023000000000005,1.2249,1.4584,1.926,2.312,2.3502,1.7646,0.97609,0.72025,0.97262,-0.37018,0.9349799999999999,-1.0435,-3.102,-4.4511,-4.3456,-3.48,-2.3899,-1.7416,-1.6255,-0.75271,-0.24308000000000002,-0.31056,-0.23553000000000002,-0.33588,-0.23126,-0.2796,-0.33957,-0.37238000000000004,-0.41255,-0.35658,-0.34356,-0.28786999999999996,-0.44632,-0.42503,-0.42491999999999996,-0.49427,-0.50632,-0.6501399999999999,-0.648,-0.70719,-0.7337199999999999,-0.78542,-0.8946299999999999,-0.81353,-0.8291200000000001,-0.86361,-0.8849299999999999,-0.95936,-0.82981,-0.83915,-0.77168,-0.57038,-0.55608,-0.43861000000000006,-0.39937,-0.22364,-0.067743,-0.054807,-0.037386,-0.034256,0.098152,-0.05486799999999999,-0.011947,-0.023129,0.006939,0.079206,-0.06654600000000001,0.10693,0.057174,0.059092,0.020325,0.10142999999999999,0.079636,0.044969,0.18286,0.20075,0.2061,0.30582,0.32013,0.37101,0.38683,0.43717,0.54702,0.54373,0.6137699999999999,0.64773,0.6532899999999999,0.6067,0.52644,0.55902,0.55567,0.59727,0.57076,0.46748999999999996,0.4634,0.48188000000000003,0.43218999999999996,0.39453
0,1.5295,1.7766,1.9367,1.8402,1.8,1.7249,1.4058,1.0088,0.72472,0.43067,-0.11345999999999999,-0.47291000000000005,-0.6017399999999999,-0.6488,-0.68112,-0.63584,-0.61077,-0.7048399999999999,-0.7176899999999999,-0.70729,-0.6452899999999999,-0.72895,-0.68466,-0.6524,-0.73038,-0.67681,-0.66197,-0.49443000000000004,0.049705,0.6848,0.65127,0.66261,1.1634,1.3543,1.1340000000000001,0.70992,0.97051,1.3706,0.828,-1.6753,1.5155,-0.5865199999999999,-2.8001,-4.4356,-4.6206,-3.9644,-2.7769,-1.5648,-1.3352,-0.7670600000000001,-0.041918000000000004,-0.061350999999999996,-0.072978,-0.099151,0.005291,0.057874,-0.069164,-0.10147,-0.027129,-0.12175,-0.095764,-0.16827999999999999,-0.14685,-0.1563,-0.22436999999999999,-0.2712,-0.34187,-0.23135,-0.37422,-0.5132899999999999,-0.40683,-0.4681,-0.56876,-0.70829,-0.75313,-0.75618,-0.7020000000000001,-0.61163,-0.64987,-0.5776,-0.52835,-0.43982,-0.2774,-0.32464,-0.15924000000000002,0.010729,0.099638,0.17281,0.10513,0.2685,0.19358,0.18234,0.26358000000000004,0.22091,0.21811999999999998,0.36668,0.26278,0.33248,0.20786999999999997,0.2426,0.24852,0.27398,0.32616999999999996,0.27052,0.30926,0.32809,0.34875,0.4286,0.36152,0.3985,0.46316999999999997,0.40963999999999995,0.50442,0.65854,0.5925,0.65588,0.59736,0.6229399999999999,0.57638,0.5294800000000001,0.55967,0.40951,0.35611,0.38247,0.33189,0.4091,0.26249,0.31561999999999996,0.22958,0.25406,0.1696,0.12617,0.2583,0.23859,0.46558999999999995,0.6402800000000001,0.72765,0.86787,1.0586,1.2953
0,1.2865,1.0499,0.7936,0.47358999999999996,0.11173,-0.054857,-0.062095000000000004,-0.12075,-0.10300999999999999,-0.10248,-0.10404000000000001,-0.10686,-0.15824000000000002,-0.14237,-0.08205599999999999,-0.092,-0.076051,-0.11195999999999999,-0.067124,-0.06554700000000001,-0.035976999999999995,0.1572,0.64715,0.8285399999999999,0.6320100000000001,0.94191,1.2029,1.2004,1.4055,1.6653,2.3799,1.093,0.6903600000000001,-1.4674,-3.1994,-4.1399,-3.9195,-3.2572,-2.2128,-1.6478,-1.5497,-0.8547799999999999,-0.40321999999999997,-0.33521,-0.37943000000000005,-0.4438,-0.37872,-0.41705,-0.44526000000000004,-0.46812,-0.47268000000000004,-0.44895,-0.5256,-0.51251,-0.5696899999999999,-0.6673399999999999,-0.59353,-0.75062,-0.7592300000000001,-0.7904,-0.8562299999999999,-0.88229,-0.96326,-1.0013,-1.0167,-1.0728,-1.146,-1.03,-1.0662,-1.0305,-1.0372,-0.96696,-0.8664200000000001,-0.79818,-0.76167,-0.62425,-0.49698000000000003,-0.40494,-0.32907,-0.24155,-0.19329000000000002,-0.1282,-0.13435999999999998,-0.094572,0.037298000000000005,-0.004831,0.03338,0.099481,0.09083300000000001,0.17456,0.10976,0.12514,0.24011999999999997,0.16598,0.26685,0.27951,0.33364,0.40005999999999997,0.49213,0.42726000000000003,0.49778999999999995,0.5716399999999999,0.57525,0.5895,0.60527,0.6532,0.67499,0.65457,0.64956,0.63353,0.54994,0.6,0.54327,0.52912,0.51674,0.53823,0.5344899999999999,0.42061000000000004,0.48191999999999996,0.49856000000000006,0.4417,0.47628000000000004,0.47265,0.45912,0.40567,0.37656,0.33082,0.48571000000000003,0.59191,0.72941,0.9663700000000001,1.1065,1.0919,1.3026,1.5727,1.7337,1.7406,1.7117,1.5793,1.5141
1,-0.1754,-0.12192,-0.053532,-0.024293000000000002,0.022917,0.11644000000000002,0.18704,0.24070999999999998,0.31434,0.34281999999999996,0.36633000000000004,0.49,0.599,0.57917,0.59132,0.7065100000000001,0.72356,0.70862,0.80581,0.81552,0.75836,0.75647,0.75478,0.759,0.74087,0.7380800000000001,0.75481,0.74969,0.82395,0.89285,0.81947,0.77733,0.83549,0.85921,0.88713,0.8839100000000001,0.80523,0.8208,0.86951,0.8377100000000001,0.93009,1.0368,0.94194,0.94247,0.97682,0.86895,0.80374,0.66217,0.54542,0.6087199999999999,0.58298,0.4412,0.30958,0.18959,0.10683,-0.012665000000000001,-0.17079,-0.12978,-0.040846,-0.18462,-0.48733000000000004,-0.9483299999999999,-1.4654,-1.9101,-2.3049,-2.6471,-2.9707,-3.0551,-2.7517,-2.0031,-0.83139,0.29249,1.3752,1.808,0.63581,-0.83935,-2.0205,-2.7553,-3.0192,-2.9684,-2.7744,-2.5068,-2.1367,-1.5991,-1.0231,-0.67399,-0.58335,-0.45946000000000004,-0.096263,0.28121,0.38309,0.39886,0.43626000000000004,0.39015,0.44421000000000005,0.51546,0.4781,0.49968999999999997,0.46462,0.37142,0.40694,0.38797,0.32653000000000004,0.4343,0.42278999999999994,0.34025,0.36756,0.30262,0.35681,0.40376999999999996,0.31549,0.32461,0.24228000000000002,0.22164,0.27519,0.18184,0.15607000000000001,0.15325999999999998,0.13549,0.13309,0.093166,0.081371,0.029598000000000003,-0.000528,-0.003781,-0.044868,-0.031473,-0.1012,-0.19597,-0.18462,-0.23415,-0.24846999999999997,-0.17759,-0.22300999999999999,-0.27726999999999996,-0.23328000000000002,-0.25261,-0.26421999999999995,-0.17639000000000002,-0.15492999999999998
0,0.17394,0.14885,0.17890999999999999,0.23731,0.27612,0.39865,0.46301000000000003,0.47181999999999996,0.5554,0.54172,0.53735,0.71648,0.59992,0.56777,0.5372899999999999,0.57691,0.56823,0.5587300000000001,0.49832,0.45196000000000003,0.49987,0.42672,0.46928000000000003,0.46398,0.38699,0.39541,0.37751,0.35309,0.29600000000000004,0.29456,0.28301,0.33352,0.46398999999999996,0.61738,0.78477,0.79828,1.0285,1.0929,1.263,1.5441,1.6337,1.3926,1.252,0.92784,0.73975,0.6379600000000001,0.53117,0.46538999999999997,0.20178,-0.12036,-0.12595,-0.2222,-0.22609,-0.23723000000000002,-0.13885999999999998,-0.19485999999999998,-0.31048000000000003,-0.20206,-0.16029000000000002,-0.20517,-0.24705,-0.1272,-0.13109,-0.10447999999999999,0.28926999999999997,1.0107,1.5333,1.4985,1.9349,2.3032,1.9417,1.2579,0.6906899999999999,0.62748,-0.8115899999999999,0.46113999999999994,-0.92605,-2.3085,-3.7943,-4.9131,-4.5668,-3.3528,-2.1802,-1.6349,-1.1075,-0.15974000000000002,-0.18282,-0.18279,-0.17704,-0.1755,-0.094579,-0.086075,-0.13967000000000002,-0.14154,-0.16108,-0.18367,-0.17756,-0.2147,-0.28245,-0.25897,-0.29531,-0.33332,-0.42263,-0.44023,-0.43366000000000005,-0.53359,-0.60241,-0.65647,-0.6761199999999999,-0.7125199999999999,-0.7620899999999999,-0.76137,-0.77094,-0.66561,-0.7705,-0.70997,-0.66061,-0.6432899999999999,-0.45393,-0.43332,-0.30638000000000004,-0.19418,-0.10178,-0.08807100000000001,0.060570000000000006,-0.011409,-0.044106,0.029372000000000002,0.10046000000000001,0.04637,0.046535,0.0011480000000000001,-0.007529999999999999,0.008211,-0.028456,0.04728,0.10665999999999999,0.16788,0.10543,0.20467
1,0.48886,0.30494,0.31446999999999997,0.20137,0.069342,-0.17115,-0.45943999999999996,-0.70649,-1.0117,-1.2462,-1.3224,-1.6887,-2.0088,-2.506,-3.0307,-3.4744,-4.0139,-4.4844,-4.1818,-3.0737,0.8869799999999999,1.2981,1.2196,0.8299799999999999,0.022529,-0.61628,-0.93819,-1.3648,-1.7215,-1.7238,-1.3778,-0.86665,-0.55711,-0.38086,-0.35405,-0.058727999999999995,0.34594,0.51622,0.40998,0.43983999999999995,0.46555,0.3988,0.38076,0.43473999999999996,0.38366999999999996,0.37947,0.37154,0.36466,0.40339,0.32766999999999996,0.41628999999999994,0.39069,0.33437,0.28573000000000004,0.32188,0.24103000000000002,0.2401,0.31919000000000003,0.2406,0.26737,0.21815,0.18424000000000001,0.21373000000000003,0.11757999999999999,0.092318,0.12787,0.11578,0.11385,0.14461,0.043563,0.001544,0.018978000000000002,0.007240000000000001,0.0060490000000000006,-0.034045,0.013534000000000001,-0.026496,0.024791999999999998,-0.015597999999999999,-0.013893,-0.036236000000000004,-0.052048000000000004,-0.026532999999999998,-0.012256,0.044523,0.088558,0.068452,0.14201,0.18448,0.22185,0.26199,0.33876,0.33783,0.33987,0.37787,0.37744,0.41968999999999995,0.43372,0.46007,0.46588,0.41698,0.50695,0.49988999999999995,0.45191000000000003,0.45258999999999994,0.46243999999999996,0.5233,0.5291,0.53246,0.49701000000000006,0.4811,0.55286,0.56171,0.5220600000000001,0.55172,0.58477,0.46313000000000004,0.49826000000000004,0.53294,0.46988,0.5798399999999999,0.56238,0.52922,0.58491,0.6480899999999999,0.5857399999999999,0.60353,0.66057,0.6458699999999999,0.68058,0.65517,0.7522399999999999,0.70477,0.67599,0.72573,0.73369,0.7468899999999999,0.73605,0.6814100000000001,0.65044
0,-0.075014,0.17399,0.60849,0.7804800000000001,0.81838,0.85455,0.87749,0.79063,0.6433,0.8646299999999999,0.99959,0.32037,-2.0352,0.44198999999999994,-1.6549,-3.4018,-4.5516,-4.7694,-4.0873,-2.9432,-1.6896,-1.3888,-0.64836,-0.086812,-0.047263,-0.07858,-0.060816999999999996,0.11685,-0.080858,0.00405,-0.034329000000000005,0.014034999999999999,-0.014091,-0.06661900000000001,-0.15695,-0.11700999999999999,-0.11934000000000002,-0.15294000000000002,-0.19714,-0.26631,-0.2955,-0.36136999999999997,-0.45729,-0.65735,-0.62531,-0.59432,-0.7105,-0.66267,-0.6320600000000001,-0.68348,-0.77915,-0.67403,-0.60747,-0.49613,-0.49373,-0.36501,-0.2426,-0.17684,-0.15867,-0.023674,-0.014266999999999998,0.050436,0.10962000000000001,0.08563,0.10611,0.12032999999999999,0.13427999999999998,0.05967000000000001,0.096121,0.051562000000000004,0.12986,0.20069,0.15195,0.18506,0.26123,0.22155,0.1568,0.12190999999999999,0.33071,0.33078,0.38336,0.39893,0.45948999999999995,0.45275,0.47608999999999996,0.44299999999999995,0.58032,0.44837,0.45974,0.41258,0.53589,0.53837,0.44195,0.48181999999999997,0.35906,0.40824,0.38700999999999997,0.42805,0.37426,0.29948,0.41175,0.36789,0.35262,0.33893,0.31316,0.32219000000000003,0.37522,0.39074000000000003,0.6244,0.77503,0.9736,1.0671,1.2692,1.4333,1.6535,1.8414,1.7906,1.7074,1.6283,1.4237,1.2828,1.0649,0.8765700000000001,0.55382,0.071431,-0.18646,-0.27203,-0.30749,-0.31184,-0.32478,-0.34221999999999997,-0.24024,-0.29364,-0.30448000000000003,-0.2727,-0.27401,-0.36185,-0.24497,-0.39255999999999996,-0.32648
0,0.99987,1.1541,1.2749,1.3645,1.7912,2.1971,2.1651,1.9815,1.8203,1.6164,1.44,1.0552,0.65486,0.082774,-0.31973,-0.30105,-0.32155,-0.41096000000000005,-0.43573999999999996,-0.32273,-0.27943,-0.38127,-0.41051000000000004,-0.32489,-0.22118000000000002,-0.46891000000000005,-0.39516,-0.30175,-0.21788000000000002,-0.2019,0.35444000000000003,0.86345,0.8739299999999999,1.6716,2.0767,1.839,0.77847,0.80589,1.8865,0.28139000000000003,-1.7611,-2.8139999999999996,-3.9001,-4.1091,-2.8514,-1.9642,-1.8189,-0.98705,-0.18435,-0.3297,-0.28819,-0.32292,-0.3064,-0.31534,-0.33366999999999997,-0.20704,-0.37481,-0.30646999999999996,-0.44628,-0.3879,-0.39741,-0.46038,-0.5029100000000001,-0.49662,-0.49141999999999997,-0.7467699999999999,-0.76752,-0.8297100000000001,-0.92712,-0.92585,-1.0223,-1.0644,-1.0937,-1.0131,-1.0708,-1.1487,-1.114,-0.99403,-0.9806,-1.0264,-0.9159299999999999,-0.80138,-0.59312,-0.5521,-0.42093,-0.19747,-0.261,-0.13909000000000002,-0.059425,0.029235,0.045116,0.032886,0.012884,0.026805000000000002,0.16214,0.076838,0.15648,0.16139,0.25497,0.28445,0.28665999999999997,0.22363000000000002,0.29027,0.3513,0.43787,0.43217,0.37974,0.47565,0.54914,0.65589,0.63097,0.5986899999999999,0.55806,0.70417,0.79865,0.54933,0.61303,0.5299699999999999,0.5886399999999999,0.44711000000000006,0.45316999999999996,0.41248999999999997,0.48331999999999997,0.50145,0.48878999999999995,0.33914,0.41871,0.42041000000000006,0.36222,0.31629,0.25905,0.42552,0.33989,0.32237,0.27703,0.21821999999999997,0.26739,0.37442,0.48433000000000004,0.80048
0,-3.9684,-2.524,-1.8516,-1.5524,-0.56228,-0.12324,-0.29470999999999997,-0.30551,-0.27831999999999996,-0.27885,-0.22988000000000003,-0.25605,-0.20776999999999998,-0.28073000000000004,-0.42308,-0.38718,-0.37674,-0.51695,-0.44493,-0.51673,-0.63347,-0.62893,-0.6473300000000001,-0.73546,-0.77785,-0.74203,-0.7953899999999999,-0.8825700000000001,-0.9268,-0.9139200000000001,-0.94975,-0.94525,-0.98182,-0.7833899999999999,-0.77255,-0.74763,-0.6745800000000001,-0.5607300000000001,-0.33399999999999996,-0.36414,-0.11575,-0.06314600000000001,-0.052885,0.017823,0.026555000000000002,0.02138,0.10519,0.10661,0.1302,0.15048,0.2274,0.072163,0.22716999999999998,0.26578,0.33866,0.29821,0.2757,0.33533,0.31245,0.43545,0.5261100000000001,0.5481,0.7094,0.6754,0.63817,0.70954,0.7915399999999999,0.7581100000000001,0.67956,0.8177300000000001,0.7773399999999999,0.7126100000000001,0.68779,0.7593,0.6907,0.7178399999999999,0.57626,0.53852,0.6501899999999999,0.46243999999999996,0.38437,0.46228,0.45059,0.3585,0.4964,0.41703,0.45543999999999996,0.46288,0.35252,0.33379000000000003,0.28997,0.38971,0.38197,0.33921,0.20533,0.25137,0.39552,0.4241,0.74838,1.0146,1.2395,1.3559999999999999,1.4542,1.704,2.0972,1.7499,1.5411,0.99331,0.9661,0.96149,0.64145,0.23546999999999998,-0.25277,-0.31593000000000004,-0.35226,-0.41751000000000005,-0.35167,-0.2596,-0.29070999999999997,-0.22931999999999997,-0.33909,-0.31655,-0.34696,-0.42105,-0.35741,-0.29819,-0.22801999999999997,0.38845999999999997,1.3869999999999998,1.4767,1.6859,1.605,1.0027,-0.016392,-0.42901999999999996,0.71667,-1.2788,-3.0345,-3.9758,-4.669
1,0.29958,0.21474000000000001,0.18456,0.13198,0.057779,0.018045,-0.071802,0.005536,0.066041,0.042363,0.055255,-0.0051270000000000005,-0.051986000000000004,-0.015207,-0.009413,0.020943,0.09275499999999999,0.000737,-0.071986,0.070327,0.09135499999999999,0.028343,0.17461,0.2868,0.27783,0.31537,0.31601999999999997,0.36638000000000004,0.44613,0.41105,0.42461000000000004,0.48313,0.4544,0.46775,0.5696899999999999,0.5484399999999999,0.52878,0.63875,0.64355,0.62232,0.6227600000000001,0.57585,0.5664,0.56635,0.57809,0.61301,0.63279,0.5945600000000001,0.61562,0.72445,0.7123,0.67086,0.71278,0.66167,0.5829300000000001,0.5856899999999999,0.6101300000000001,0.69307,0.6884399999999999,0.61338,0.60209,0.42122,0.16604000000000002,0.14347000000000001,0.19633,0.16141,0.12753,-0.018673,-0.23865,-0.3707,-0.5929,-0.63412,-0.44083,-0.51807,-0.70244,-0.89975,-1.4415,-1.8616,-2.3214,-2.8849,-3.5302,-4.4125,-3.9033,-3.5671,-1.5363,0.89487,-0.003822,-0.75105,-1.3965,-1.7378,-2.113,-2.2132,-2.2033,-2.0242,-1.5915,-1.0499,-0.57789,-0.31314000000000003,-0.20084000000000002,-0.1838,0.016525,0.50921,0.77751,0.75067,0.78843,0.7713800000000001,0.7325699999999999,0.67986,0.62184,0.60469,0.5813,0.65998,0.63413,0.63559,0.76051,0.76912,0.73457,0.72109,0.7504,0.62613,0.51689,0.5455399999999999,0.50589,0.52589,0.49186,0.52837,0.62283,0.58039,0.54824,0.5077,0.51205,0.40907,0.31038000000000004,0.36845,0.38137,0.3342,0.18131,0.20182999999999998,0.29331999999999997,0.27946
0,0.43595,0.29454,0.44103000000000003,0.24733000000000002,0.28491,0.32549,0.4388,0.55845,0.79483,1.0988,1.1858,1.4149,1.4792,1.7229,1.9439,1.8684,1.8238,1.5301,1.2358,1.1554,0.8651700000000001,0.5151600000000001,0.075829,-0.29746,-0.42168,-0.40136,-0.35593,-0.34893,-0.34351,-0.32384,-0.26461999999999997,-0.27536,-0.2375,-0.29163,-0.21577,-0.21091,-0.14549,-0.11395,-0.15978,0.26277,1.1096,1.2244,0.80148,0.59299,0.62478,0.62221,0.92179,0.9288299999999999,1.6545,0.90909,0.7801100000000001,-1.4679,-3.591,-4.7055,-3.9341,-2.7504,-1.7214,-1.4669999999999999,-0.40679,-0.008843,-0.14997,-0.14697000000000002,-0.12653,-0.17389000000000002,-0.24796999999999997,-0.23284000000000002,-0.15356,-0.10267000000000001,-0.16806,-0.18012,-0.2124,-0.19777,-0.34806,-0.33176,-0.49806000000000006,-0.62026,-0.69718,-0.76337,-0.80369,-0.87869,-0.89418,-1.065,-1.1373,-1.1623,-1.2991,-1.3477,-1.3344,-1.3978,-1.3205,-1.1988,-1.1737,-1.0908,-0.98054,-0.8281700000000001,-0.60768,-0.5261100000000001,-0.38244,-0.20454,-0.20969000000000002,0.011035,-0.066237,0.023153,0.086078,0.073103,0.1664,0.14303,0.18232,0.1853,0.24798,0.31439,0.34923000000000004,0.27668000000000004,0.30651999999999996,0.31374,0.3554,0.36576,0.36128000000000005,0.49731000000000003,0.56682,0.52378,0.58257,0.56972,0.65105,0.61416,0.66577,0.69208,0.6189,0.6662399999999999,0.66194,0.60963,0.60925,0.5665600000000001,0.65794,0.57558,0.61235,0.5975,0.6109899999999999,0.63059,0.43845,0.57171
1,-2.0136,-1.6222,-1.1599,-0.96165,-0.80914,-0.75807,-0.43313999999999997,-0.17122,-0.11414,-0.13194,-0.14874,-0.15385,-0.15922999999999998,-0.086711,-0.1442,-0.13596,-0.1627,-0.12573,-0.18018,-0.11216,-0.090258,-0.13244,-0.17244,-0.13846,-0.16504000000000002,-0.1594,-0.17112,-0.20013,-0.19902,-0.2144,-0.20317000000000002,-0.21639,-0.21205,-0.22728,-0.26697,-0.26366999999999996,-0.30629,-0.28191,-0.34646,-0.36274,-0.38641,-0.37322,-0.3822,-0.3735,-0.36275999999999997,-0.40448,-0.37618,-0.35913,-0.35123000000000004,-0.3805,-0.30595,-0.30304000000000003,-0.31340999999999997,-0.29724,-0.2486,-0.21932,-0.2069,-0.18486,-0.15914,-0.11109000000000001,-0.10558,-0.12085,-0.11517999999999999,-0.043708,-0.03535,-0.037714,-0.031514,-0.062552,-0.003137,0.017572,0.04834,0.032708999999999995,0.051876,0.07349,0.036721,0.097985,0.12229000000000001,0.091687,0.087199,0.051661,0.09946100000000001,0.11629,0.12427,0.16109,0.17094,0.16891,0.17915999999999999,0.20842,0.1949,0.23605,0.29129,0.24674000000000001,0.26684,0.27201,0.31251,0.33403,0.32545,0.33128,0.35585,0.35785,0.41897,0.42333999999999994,0.45005,0.49578999999999995,0.62349,0.7591399999999999,0.8501200000000001,1.0081,1.0329,1.1955,1.4398,1.6848,1.8479,1.9369999999999998,2.096,2.3308,2.4634,2.6214,2.7528,2.7688,2.6964,2.31,1.8152,1.5291,0.7295,-0.25736,-0.79542,-1.1293,-1.2079,-1.6239,-2.3323,-2.7021,-2.8647,-2.9068,0.31164000000000003,-0.42313,-1.405,-1.8783,-1.9480000000000002,-2.0137
0,0.48901999999999995,1.119,-1.1740000000000002,0.19499,-2.7928,-4.2701,-4.4113,-4.2183,-3.1525,-1.8762,-1.6628,-1.1116,-0.26198,-0.26249,-0.28323000000000004,-0.29175,-0.27296,-0.30307,-0.29453,-0.32677,-0.28673000000000004,-0.2691,-0.32111,-0.27138,-0.28725,-0.27462,-0.45702,-0.44755,-0.49028,-0.49812,-0.4263,-0.55602,-0.60463,-0.65855,-0.61423,-0.71355,-0.79333,-0.8300200000000001,-0.79899,-0.8580200000000001,-0.9014,-0.8245899999999999,-0.7146100000000001,-0.73916,-0.6399,-0.60395,-0.45108000000000004,-0.3908,-0.35348,-0.25891,-0.15887,-0.16394,-0.0989,-0.02648,0.09009500000000001,0.005745,0.027131,0.068659,0.055453999999999996,0.10076,0.11606,0.27443,0.23101,0.15862,0.19508,0.22933,0.18698,0.30749,0.29379,0.31206,0.30751,0.36922,0.38937,0.39958,0.6020800000000001,0.5960300000000001,0.5441699999999999,0.5935199999999999,0.58296,0.57998,0.65599,0.55132,0.58714,0.68511,0.51134,0.54337,0.43942,0.37364,0.3321,0.44603000000000004,0.42336999999999997,0.43258,0.38363,0.41526,0.34199,0.34057,0.36939,0.40426,0.39355,0.37574,0.37463,0.5889800000000001,0.83906,1.0682,1.2752,1.4849,1.6344,1.8159,1.9052,1.8024,1.7734,1.5759999999999998,1.4377,1.183,0.93373,0.54988,0.16574,-0.084587,-0.16792,-0.23393000000000003,-0.27974,-0.16716,-0.1665,-0.21291999999999997,-0.15544000000000002,-0.14092000000000002,-0.065592,-0.038245,-0.16551,-0.12971,-0.080478,0.008320000000000001,0.20819000000000001,0.86277,1.3253,1.2497,1.3121,0.9997,0.5726899999999999,0.46488999999999997
1,0.58339,0.64294,0.59134,0.58331,0.65988,0.62845,0.60829,0.6564300000000001,0.65869,0.67235,0.64522,0.59096,0.6579699999999999,0.71558,0.74958,0.73012,0.60829,0.52577,0.41447,0.3205,0.39711,0.48701000000000005,0.53979,0.59277,0.48905,0.42562,0.52166,0.5959899999999999,0.79497,0.9398299999999999,0.79638,0.4177,-0.20628000000000002,-0.8361700000000001,-1.5759,-1.9808,-2.8222,-3.8954,-4.0031,-4.9721,-2.8603,0.019208000000000003,-0.63954,-1.0382,-1.6878,-1.9964,-2.4237,-2.6129,-2.4653,-2.1244,-1.7267,-1.3495,-0.82262,-0.50952,-0.48149,-0.41475,-0.15405,0.19044,0.30605,0.3029,0.34026,0.31375,0.30689,0.3377,0.32066999999999996,0.32113,0.3484,0.35999000000000003,0.40339,0.41241000000000005,0.35302,0.3484,0.37054000000000004,0.34391,0.32863000000000003,0.30646999999999996,0.2791,0.27183,0.22979000000000002,0.25553000000000003,0.29956,0.26177,0.27313000000000004,0.27431,0.21645999999999999,0.19302,0.20979,0.22965,0.20986,0.18695,0.19902,0.20979,0.16384,0.082578,0.094051,0.15039,0.12315999999999999,0.065958,0.032547,0.009154,-0.022011000000000003,-0.032769,-0.002157,-0.0018,-0.011214,0.060022000000000006,0.08851200000000001,0.026926,0.044953,0.087268,0.09311,0.12315999999999999,0.13721,0.17845999999999998,0.22916999999999998,0.20145,0.22712,0.34657,0.37279,0.34121999999999997,0.40744,0.45235,0.43138999999999994,0.48577,0.54851,0.5834,0.57363,0.50685,0.55415,0.6079899999999999,0.612,0.59096,0.50826,0.5574600000000001,0.59313,0.5798,0.62561,0.5978899999999999,0.60443,0.5935199999999999
0,-0.7096100000000001,-0.74738,-0.6493800000000001,-0.78974,-0.83344,-0.85898,-0.92211,-0.90349,-0.9315200000000001,-0.9566399999999999,-0.9305700000000001,-0.84835,-0.84831,-0.81853,-0.78358,-0.69716,-0.5412,-0.49146000000000006,-0.39926999999999996,-0.35769,-0.2374,-0.15715,-0.11434000000000001,-0.069702,-0.063322,0.043429,-0.007658,0.08952,0.16981,0.099614,0.12531,0.12289000000000001,0.15119000000000002,0.15342999999999998,0.15699000000000002,0.13924,0.22386999999999999,0.26509,0.2597,0.32232,0.26828,0.46908999999999995,0.31546,0.49271000000000004,0.5708,0.54214,0.4881,0.51874,0.48276,0.5230899999999999,0.5485800000000001,0.5856,0.5689,0.51976,0.6027,0.49754,0.38319000000000003,0.55685,0.49413999999999997,0.39774,0.30119,0.42045,0.36951999999999996,0.39314,0.42751999999999996,0.3775,0.35754,0.31395,0.41566000000000003,0.44738,0.68482,0.81502,1.1156,1.244,1.3637,1.7236,1.9454,2.1465,2.0889,2.1991,1.8888,1.5841,1.389,1.0463,0.5575399999999999,0.1715,-0.055597,-0.15222,-0.20199,-0.18281,-0.23619,-0.14725,-0.25756,-0.079968,-0.18254,-0.11962,-0.089273,-0.1466,-0.11445,-0.13484000000000002,-0.029422000000000004,0.09357,0.52863,1.1314,1.2871,1.0746,0.9325100000000001,0.70272,0.71696,0.57376,1.305,0.59221,0.44553999999999994,-1.9451,-3.5526,-4.2869,-4.2171,-3.2979,-2.0552,-1.767,-1.1745,-0.31849,-0.34517,-0.38383,-0.27643,-0.28828000000000004,-0.26425,-0.33057,-0.33541,-0.287,-0.35308,-0.3212,-0.44233,-0.39257,-0.39689,-0.39546,-0.37166,-0.50335,-0.5523600000000001,-0.6676
0,0.6703,0.87518,0.8991299999999999,1.3507,1.8077,1.6629,1.4363,1.5507,2.0968,1.8675,-1.1742,1.4976,-2.1117,-3.375,-4.067,-3.9426,-3.5806,-2.4152,-1.6498,-1.3611,-0.5694899999999999,-0.009426,-0.068108,-0.096822,-0.057197000000000005,-0.027686000000000002,-0.01732,-0.043976999999999995,0.021317,-0.048652,-0.18002,-0.14803,-0.13747,-0.11921,-0.21155,-0.29588000000000003,-0.37248000000000003,-0.40557,-0.4614,-0.54328,-0.62875,-0.80406,-0.78298,-0.64344,-0.6511899999999999,-0.84034,-0.8643,-0.70426,-0.80571,-0.77544,-0.83314,-0.7470600000000001,-0.5612199999999999,-0.5070100000000001,-0.53005,-0.49956999999999996,-0.34974,-0.25028,-0.16598,-0.044578,-0.035733,-0.015142,-0.057752,-0.10436,0.04387,-0.02308,-0.011224,0.10135,-0.030895,0.06858099999999999,0.20496999999999999,0.12448,0.17099,0.21023000000000003,0.1877,0.19618,0.22019,0.19964,0.30984,0.36073,0.44251999999999997,0.5282399999999999,0.56799,0.49194,0.41735,0.53646,0.45069,0.5442600000000001,0.5452199999999999,0.53364,0.43025,0.5020899999999999,0.44483,0.41279,0.21093,0.19358,0.26611999999999997,0.22695,0.31727,0.2884,0.16097999999999998,0.15134,0.17135999999999998,0.14215,0.18724000000000002,0.19815,0.32513000000000003,0.6279,0.69853,0.85434,1.004,1.2529,1.5113,1.7393,1.7875,1.835,1.6872,1.5607,1.3819,1.0181,0.81352,0.39505,0.13005999999999998,-0.19487000000000002,-0.49533999999999995,-0.34142,-0.425,-0.34058,-0.45643,-0.40104,-0.4014,-0.48733999999999994,-0.36745,-0.43706000000000006,-0.46168000000000003,-0.44603000000000004,-0.45869,-0.37821,-0.22789,-0.041244
0,0.6016,0.79375,1.042,1.2313,1.5959999999999999,1.67,1.5152,1.5387,1.4480000000000002,1.0998,0.67969,0.30449,-0.07610499999999999,-0.54778,-0.9117,-1.2690000000000001,-1.5289,-1.4371,-1.3813,-1.3899,-1.5598,-1.4784,-1.5508,-1.6212,-1.595,-1.6194,-1.4819,-1.5298,-1.4536,-1.501,-1.3066,-0.50526,0.0643,-0.08495499999999999,0.097044,0.27475,0.33348,-0.20893,-0.060077,0.48828999999999995,0.6138600000000001,-1.3783,0.85715,-1.7187,-3.9767,-4.5936,-3.5758,-2.1898,-1.0595,-0.8177300000000001,0.001003,0.777,0.72763,0.78822,0.81985,0.74644,0.69004,0.79295,0.61748,0.66897,0.61007,0.56392,0.51623,0.42121000000000003,0.47283000000000003,0.3189,0.27849,0.21583000000000002,0.12449,0.14724,-0.07347200000000001,-0.1549,-0.19165,-0.2651,-0.25861999999999996,-0.37317,-0.5395,-0.53394,-0.51149,-0.53537,-0.32994,-0.40028,-0.32723,0.016854,-0.076161,0.074603,0.20788,0.27025,0.57002,0.39984000000000003,0.4141,0.61129,0.5635100000000001,0.59549,0.51269,0.5997600000000001,0.5488,0.48667,0.54293,0.36491,0.52833,0.59428,0.5250100000000001,0.57268,0.43498000000000003,0.62253,0.60659,0.65593,0.63864,0.6824399999999999,0.68716,0.70814,0.7377199999999999,0.85467,0.7511800000000001,0.7874,0.8145,0.74549,0.6843600000000001,0.5713199999999999,0.63649,0.42156000000000005,0.4315,0.42748,0.22368000000000002,0.30559000000000003,0.25236,0.23615999999999998,0.10542,0.11935,0.13751,0.010334999999999999,0.045269,-0.071049,-0.026524000000000002,-0.09086799999999999,-0.12090999999999999,-0.023505,0.13305999999999998,0.29535
1,0.55232,0.59982,0.5785100000000001,0.5917899999999999,0.58087,0.61879,0.70645,0.6592,0.65968,0.71542,0.65196,0.68218,0.7141,0.78961,0.8153600000000001,0.804,0.78752,0.8691700000000001,0.95516,0.9015799999999999,0.9581299999999999,0.8690000000000001,0.9733,0.9364899999999999,0.96729,0.98815,0.9876,0.9624299999999999,1.0361,0.92622,0.9316700000000001,0.96526,0.9986700000000001,1.0428,0.9655299999999999,0.90899,0.9358799999999999,0.8410700000000001,0.8437100000000001,0.76683,0.56258,0.47101000000000004,0.45453000000000005,0.59426,0.47303999999999996,0.18959,0.064594,-0.09503400000000001,-0.12442,0.060609,-0.053564,-0.43883999999999995,-0.73868,-1.3305,-1.9277,-2.3641,-2.9345,-3.3939999999999997,-2.9507,-1.8329,-0.10035,0.67982,-0.86388,-2.2982,-3.1867,-3.4151,-3.2658,-3.0115,-2.5927,-1.774,-1.1795,-0.9556899999999999,-0.87264,-0.5441699999999999,-0.045462,0.21581999999999998,0.19780999999999999,0.13473,0.099037,0.15363,0.1304,0.14723,0.16619,0.10647000000000001,0.10702,0.14272,0.16052,0.063154,0.18659,0.13893,0.11868,0.10343,0.097189,0.15821,0.085537,0.08769400000000001,-0.006751999999999999,-0.054514,-0.030161,-0.05008,-0.075977,-0.10991,-0.21166999999999997,-0.18197,-0.21124,-0.27373000000000003,-0.1302,-0.20402,-0.26143,-0.29029,-0.24758000000000002,-0.29884,-0.30396999999999996,-0.20146,-0.18897,-0.20947,-0.14346,-0.1224,-0.1513,-0.015998,-0.041814,0.029708999999999996,0.097197,0.16359,0.26516,0.2535,0.31717,0.40198,0.36455,0.32881,0.446,0.46675,0.49003,0.44823999999999997,0.43503000000000003,0.55486,0.51026,0.43764,0.47423000000000004,0.43333
1,-0.15962,-0.18402000000000002,-0.21005,-0.14393,-0.17519,-0.039799,-0.055932,-0.35001,-0.54065,-0.33636,-0.41048999999999997,-0.49418999999999996,-0.47165,-0.39516999999999997,-0.40356,-0.42028000000000004,-0.42201000000000005,-0.52159,-0.54271,-0.33242,-0.25690999999999997,-0.19396,-0.091448,-0.11772,-0.17475,-0.12555,-0.006536,0.096523,0.14137,0.11585999999999999,0.11116,0.16225,0.24691,0.3246,0.34236,0.35795,0.28325,0.34515,0.39385,0.30884,0.40973000000000004,0.42991,0.39603,0.47303,0.48402,0.50698,0.38678,0.36248,0.50835,0.67047,0.64056,0.6579999999999999,0.6664100000000001,0.7408600000000001,0.78982,0.7454,0.64273,0.68876,0.7509399999999999,0.78638,0.9001,0.95996,0.81265,0.85025,0.8837,0.8518600000000001,0.8022199999999999,0.82195,0.9663,0.8408700000000001,0.83931,0.8129,0.85716,0.77474,0.59904,0.76545,0.80784,0.80535,0.79903,0.85783,0.88781,0.83468,0.8387700000000001,0.80106,0.71453,0.59532,0.6738,0.8088,0.81458,0.6382399999999999,0.5230100000000001,0.43356999999999996,0.37943000000000005,0.48691999999999996,0.63226,0.68355,0.5283899999999999,0.38692,0.21552,0.41243,0.79338,0.62011,0.10414000000000001,-0.6116199999999999,-1.5654,-2.4987,-3.5611,-4.0658,-3.6887,0.73757,-0.19804000000000002,-1.3046,-2.3504,-3.3255,-3.6687,-3.127,-2.1396,-1.4309,-1.2336,-1.2707,-0.80071,-0.21688000000000002,-0.054980999999999995,-0.010009,-0.26544,-0.27452,-0.057076999999999996,-0.051644,0.10976,0.10493,-0.032115,-0.21771,-0.15722,-0.081446,-0.13507,-0.049474000000000004,-0.024697,-0.031810000000000005,-0.12187,-0.13618
0,-0.61028,-2.2502,-3.7324,-4.1404,-3.2698,-1.8728,-1.6045,-1.2267,0.36078000000000005,0.26521,0.18293,0.19692,0.1281,0.19638,0.14217,0.12011,0.00946,0.13939000000000001,0.10056,-0.020611,0.03036,-0.0611,-0.12383,-0.12105,-0.36132,-0.36519,-0.56028,-0.69026,-0.55271,-0.79698,-0.70707,-0.84078,-0.91551,-1.1203,-1.0134,-0.97469,-1.0211,-0.98808,-0.9519,-0.72143,-0.69572,-0.60347,-0.40446,-0.3864,-0.28157,-0.12645,0.053659000000000005,0.13652999999999998,0.10917,0.17323,0.19827999999999998,0.25756999999999997,0.22714,0.4047,0.26902,0.34836999999999996,0.31898000000000004,0.2775,0.34435,0.36746,0.2654,0.35631999999999997,0.44592,0.45996000000000004,0.43801999999999996,0.56909,0.69421,0.5521699999999999,0.58024,0.58819,0.74627,0.6591,0.73969,0.77541,0.6904600000000001,0.7640600000000001,0.68483,0.6996899999999999,0.7097600000000001,0.51883,0.49312,0.50888,0.44368,0.38447,0.37672,0.39661,0.28106,0.31305,0.27213000000000004,0.14837,0.16485,0.07131799999999999,0.2414,-0.052923000000000005,0.081502,0.090002,0.024646,0.020616,0.1212,0.72165,0.9680200000000001,1.1616,1.2334,1.3385,1.8562,2.1288,2.2317,2.1739,1.8124,1.4813,1.3812,0.92589,0.24859,-0.38095,-0.85829,-0.9618,-0.85929,-0.9761299999999999,-1.023,-0.9273899999999999,-0.98624,-0.99672,-1.022,-1.1319,-1.1778,-1.1442,-1.0098,-1.0424,-1.058,-0.69606,0.14347000000000001,0.38789,0.41213999999999995,0.87497,0.96567,1.2236,0.38237,0.36533000000000004,2.6786,1.5906
1,-1.4098,-1.1053,-0.66422,-0.40961000000000003,-0.26482,-0.14982,-0.15836,-0.032999,0.29048,0.54691,0.66589,0.66989,0.6241,0.64245,0.6292300000000001,0.58611,0.65992,0.6936399999999999,0.6242300000000001,0.60659,0.58601,0.54642,0.58585,0.6004,0.5633100000000001,0.58386,0.59458,0.57043,0.57297,0.58967,0.62015,0.62398,0.5593,0.5335,0.57039,0.54091,0.48038000000000003,0.48708999999999997,0.48673,0.43318,0.38836,0.36605,0.36293000000000003,0.33635,0.34535,0.33503,0.21403000000000003,0.27581,0.30829,0.17811,0.2233,0.18921,0.14397000000000001,0.1986,0.10952,0.08697,0.12269000000000001,0.085401,0.040039,-0.021212,-0.036617000000000004,0.003706,0.035457,-0.017013,-0.066245,-0.027906999999999998,-0.039663,0.002855,0.065052,-0.014948,0.004682,0.07678600000000001,0.064714,0.12328,0.20611999999999997,0.22721999999999998,0.24658000000000002,0.28108,0.34249,0.37172,0.36268,0.49105,0.51273,0.39966999999999997,0.53374,0.5986100000000001,0.49555,0.5222100000000001,0.5808800000000001,0.62739,0.65552,0.66702,0.6785100000000001,0.6625300000000001,0.65894,0.6736300000000001,0.74343,0.769,0.68921,0.70245,0.74688,0.6762,0.67904,0.73947,0.69912,0.72953,0.7391,0.59119,0.4845,0.38608000000000003,0.34353,0.33409,0.16029000000000002,-0.07655,-0.28665,-0.41822,-0.55348,-0.8096399999999999,-1.0116,-1.1806,-1.4757,-1.7788,-2.0664,-2.5117,-3.0785,-3.299,-3.7119,-4.0231,-3.7237,-3.9161,-1.7341,1.0125,0.64245,0.26809,-0.31982,-0.58905,-0.86511,-1.2044,-1.4321,-1.5025
0,-1.547,-3.1191,-4.0695,-4.284,-3.8328,-2.9127,-1.6267,-0.9661200000000001,-0.78,-0.09521900000000001,0.040711000000000004,-0.014622999999999999,-0.026779,-0.093843,-0.1081,-0.13945,-0.081899,-0.17097,-0.17343,-0.07732,-0.11529,-0.19995,-0.27943,-0.37183,-0.2595,-0.327,-0.35326,-0.33409,-0.40047,-0.37165,-0.32994,-0.41652,-0.49538999999999994,-0.48278999999999994,-0.48433000000000004,-0.49228,-0.49549,-0.4566,-0.39008000000000004,-0.30235,-0.34203,-0.17254,-0.13697,-0.038707,0.017119,-0.016607,0.036751,0.097683,0.097523,0.14538,0.19361,0.1117,0.10554000000000001,0.11942,0.047574,-0.005352,0.22014,-0.038005000000000004,0.15900999999999998,0.051503999999999994,0.086104,0.28417,0.13132,0.28155,0.22291999999999998,0.28325,0.38469000000000003,0.38584,0.47105,0.52277,0.59251,0.66263,0.48953,0.50759,0.69545,0.485,0.54984,0.41996999999999995,0.50532,0.56545,0.48467,0.48049,0.38072,0.38491,0.34312,0.48513,0.50571,0.30127,0.4363,0.42402,0.32034,0.32785,0.26858000000000004,0.38914,0.39452,0.47526999999999997,0.54088,0.74447,1.025,1.3058,1.4961,2.0277,2.3497,2.3763,2.3345,2.122,1.8624,1.7068,1.2846,0.6943199999999999,0.38636,-0.26800999999999997,-0.43773,-0.34588,-0.33702,-0.35736999999999997,-0.4529,-0.39115,-0.374,-0.39139,-0.26918000000000003,-0.33176,-0.24603000000000003,-0.31116,-0.40376999999999996,-0.34201,-0.24068,0.09339299999999999,0.66194,1.3865,1.4292,1.0409,0.11467999999999999,-0.38604,-0.79565,-1.1131,-0.78777,-0.57706,-2.0518,0.08326499999999999
1,-3.0135,-2.4895,-1.9968,-1.5545,-1.0304,-0.86666,-0.86125,-0.54569,-0.12089000000000001,0.22975,0.27315,0.16032000000000002,0.20717,0.21416,0.21686999999999998,0.24368,0.2469,0.30915,0.22278,0.19855,0.19946,0.27649,0.27656,0.15487,0.22344,0.17187,0.13717000000000001,0.12705,0.1364,0.15164,0.047672000000000006,0.040586000000000004,0.07542599999999999,0.07221799999999999,0.090258,0.025972000000000002,0.032768,0.002597,-0.076741,-0.050504,-0.11105999999999999,-0.10111,-0.10369,-0.18529,-0.1874,-0.17684,-0.20335,-0.21950999999999998,-0.23761999999999997,-0.24693,-0.19394,-0.16687000000000002,-0.18554,-0.20033,-0.19286,-0.1548,-0.13496,-0.13444,-0.12577,-0.07595299999999999,0.006345,0.039817,0.08848099999999999,0.18049,0.21944,0.25419,0.29732,0.38541,0.44598999999999994,0.43337,0.48465,0.53805,0.50661,0.49396,0.5759,0.5539999999999999,0.56201,0.6287,0.60037,0.62126,0.62167,0.65361,0.66061,0.63078,0.58519,0.62332,0.7066100000000001,0.6471100000000001,0.65046,0.58927,0.63925,0.72653,0.70806,0.75493,0.7487699999999999,0.80183,0.85267,0.8463,0.82096,0.8577299999999999,0.8717600000000001,0.91035,1.0012,0.94371,0.97149,0.95619,0.9649200000000001,1.0465,1.0352,0.9195700000000001,0.73236,0.7408399999999999,0.7411,0.72385,0.6519199999999999,0.48321000000000003,0.36998000000000003,0.25873,0.22078000000000003,0.35167,0.6671199999999999,0.8327899999999999,0.57224,-0.01261,-0.7258,-1.3539,-2.0891,-3.0085,-3.5439,-3.6830000000000003,-2.5059,-1.2491,-0.014159,1.4011,0.6066699999999999,-0.55089,-1.7241,-2.7383,-3.3247,-3.3135
0,1.5418,1.7719,1.9093,1.7645,1.5908,1.5223,1.3801,1.082,0.91275,0.6661600000000001,0.30124,-0.017907,-0.12933,-0.077326,-0.11043,-0.10707,-0.13225,-0.13572,-0.073688,-0.038955000000000004,-0.067023,-0.032438999999999996,-0.035844,-0.067138,-0.047228,-0.051313,-0.004037,0.20979,0.6086600000000001,0.8905799999999999,0.98788,1.1888,1.2635,1.3589,1.3774,1.3748,2.1442,0.9267,0.8218200000000001,-1.3533,-3.1438,-3.92,-4.1186,-3.6602,-2.659,-1.8285,-1.6738,-1.0295,-0.47455,-0.45382,-0.5451,-0.4286,-0.39721999999999996,-0.41428000000000004,-0.4401,-0.47297,-0.49068999999999996,-0.49412,-0.47616,-0.51334,-0.58,-0.5416,-0.53194,-0.60975,-0.67119,-0.67892,-0.73253,-0.7724,-0.78289,-0.8332200000000001,-0.91899,-0.92969,-0.8680399999999999,-0.8513799999999999,-0.96096,-0.90814,-0.8846200000000001,-0.78093,-0.74565,-0.6962,-0.68562,-0.49863999999999997,-0.40052,-0.34613,-0.21966,-0.21373000000000003,-0.23215,-0.16302,-0.073046,-0.0035159999999999996,-0.054999,-0.10752,-0.028649,-0.06599400000000001,0.015166999999999998,0.035126,0.025658999999999998,0.065954,0.062562,0.18717,0.16102,0.30693000000000004,0.26881,0.24336,0.31244,0.41796000000000005,0.43021000000000004,0.42201000000000005,0.42791,0.5132800000000001,0.52878,0.50095,0.50973,0.49506999999999995,0.53814,0.5888899999999999,0.5263899999999999,0.48481,0.48882,0.48822,0.39547,0.50098,0.50685,0.40536,0.46071000000000006,0.44597,0.42451000000000005,0.40755,0.43244,0.45281000000000005,0.37614000000000003,0.40251,0.44282,0.4141,0.47581,0.6913,0.9100600000000001,1.1117,1.2408,1.3483
0,0.51126,0.63779,0.55069,0.53296,0.47918,0.50459,0.44254,0.41839,0.4171,0.37788,0.29311,0.32006999999999997,0.3209,0.35449,0.33697,0.37005,0.45838,0.57599,0.76064,0.84491,1.0184,1.1097,1.3529,1.646,1.7554,1.6714,1.5276,1.4033,1.1697,1.0128,0.74755,0.55997,0.44728,0.11080999999999999,-0.077208,-0.13601,-0.18016,-0.1708,-0.17260999999999999,-0.23775,-0.27288,-0.25151999999999997,-0.2434,-0.24570999999999998,-0.27165,-0.16666,-0.23543000000000003,-0.24165999999999999,-0.19639,0.083389,0.60237,1.29,1.5257,1.8014,1.9913,1.6876,0.90281,0.2244,-0.052136,-0.11370999999999999,-1.5838,0.16659000000000002,-1.474,-3.3183,-4.4022,-4.4142,-3.705,-2.8439,-1.8223,-1.6159,-1.2276,-0.37789,-0.31719,-0.2942,-0.33271,-0.31617,-0.25953000000000004,-0.35263,-0.30953,-0.31617,-0.37289,-0.36635999999999996,-0.36823,-0.37188000000000004,-0.45348999999999995,-0.45061,-0.44673999999999997,-0.53152,-0.56137,-0.51937,-0.59637,-0.61385,-0.6350600000000001,-0.6146699999999999,-0.74247,-0.6570600000000001,-0.72813,-0.75408,-0.60902,-0.68967,-0.60319,-0.52215,-0.43109,-0.29631,-0.25213,-0.14814000000000002,-0.043802999999999995,0.034214999999999995,0.031570999999999995,0.043074,0.15177000000000002,0.18662,0.17096,0.069176,0.047618,0.017153,0.058113,0.17762999999999998,0.099498,0.20256,0.14042000000000002,0.12809,0.18741,0.15721,0.24709,0.31722,0.35548,0.40643,0.39924,0.44728,0.55509,0.6059,0.6251,0.66174,0.70027,0.69747,0.6591,0.71525,0.71453,0.60187
1,0.59304,0.6592600000000001,0.6411399999999999,0.5995699999999999,0.6148899999999999,0.6716,0.7195600000000001,0.72753,0.77504,0.76149,0.69923,0.73351,0.75646,0.7892399999999999,0.8542299999999999,0.81615,0.77555,0.8238200000000001,0.84257,0.84483,0.8596299999999999,0.8032600000000001,0.7198399999999999,0.6439600000000001,0.56963,0.5613600000000001,0.60988,0.6391100000000001,0.58953,0.45888,0.35155,0.26800999999999997,0.16224,0.21806,0.37696999999999997,0.27852,-0.005438,-0.31231,-0.88135,-1.5768,-2.1806,-2.911,-3.5989,-3.8792,-3.7407,-2.9011,-1.686,-0.9866,0.0445,0.12625,-0.97126,-1.723,-2.1218,-2.3084,-2.4289,-2.4388,-2.4817,-2.2475,-1.6521,-1.1572,-0.8472700000000001,-0.73243,-0.67666,-0.5726399999999999,-0.39155999999999996,0.0087,0.32992,0.42925,0.48732,0.4901,0.43965,0.36688000000000004,0.38787,0.48536,0.46192,0.41242,0.44178,0.41142,0.42285,0.50593,0.44706,0.44861999999999996,0.50049,0.39002,0.37577,0.4585,0.45185,0.4195,0.38761,0.36579,0.36175,0.33407,0.35018,0.37125,0.29911,0.30935,0.34359,0.28110999999999997,0.28001,0.28496,0.24176999999999998,0.22408000000000003,0.2258,0.25690999999999997,0.27188,0.20269,0.13962,0.16505999999999998,0.20377,0.19316,0.14240999999999998,0.13111,0.16529000000000002,0.14295,0.10525999999999999,0.12305999999999999,0.19842,0.21311,0.1335,0.1588,0.18107,0.14570999999999998,0.16619,0.14437,0.18963,0.25169,0.20365,0.25998000000000004,0.36182,0.34397,0.32821999999999996,0.36499000000000004,0.42353,0.50659,0.51563,0.51058,0.5805100000000001,0.6058600000000001,0.5929,0.5738
1,-0.36637,-0.017605000000000003,0.15578,0.17733,0.14519,0.13495,0.19168,0.22618000000000002,0.20454,0.20323,0.22180999999999998,0.22939,0.21269000000000002,0.17210999999999999,0.17524,0.22738000000000003,0.21120999999999998,0.13702,0.14567,0.20169,0.23603000000000002,0.21472,0.20845,0.20615,0.163,0.21136,0.13775,0.09337899999999999,0.1343,0.10689000000000001,0.10837000000000001,0.072362,0.091437,0.045735000000000005,0.011143,0.032398,-0.043177999999999994,-0.016338,0.052053999999999996,0.004016,-0.007267,-0.009622,0.018486000000000002,0.050003,-0.012247,0.05019,0.10447000000000001,-0.011442,0.024457,0.092071,0.098446,0.13422,0.17039,0.25831,0.24881999999999999,0.2742,0.31867,0.34151,0.4391,0.40713,0.40954,0.5595,0.53154,0.52986,0.54203,0.51982,0.5999899999999999,0.58836,0.58626,0.5717399999999999,0.5208699999999999,0.5622199999999999,0.55274,0.5142399999999999,0.59507,0.61388,0.5405300000000001,0.54689,0.61059,0.66975,0.6898,0.7549899999999999,0.80143,0.71441,0.71526,0.7189,0.76199,0.8218700000000001,0.7246600000000001,0.7449399999999999,0.8205600000000001,0.79377,0.8546,0.87092,0.8710600000000001,0.92185,0.91627,0.9691200000000001,0.96573,0.94095,0.9794299999999999,0.93891,0.78677,0.63226,0.66313,0.80893,0.80279,0.7470100000000001,0.64126,0.5122,0.35686999999999997,0.16288,0.25801,0.39481,0.23451999999999998,-0.08025499999999999,-0.52077,-1.2233,-1.9785,-2.8451,-3.7309,-3.8998,-3.6346,-2.4913,-1.6957,-0.45581000000000005,0.08959199999999999,-0.65013,-1.2737,-1.9051,-2.309,-2.7015,-2.7834,-2.7782,-2.2959,-1.7215,-1.2523,-0.9100600000000001,-0.79587,-0.6643100000000001
0,0.54701,0.55787,0.57328,0.66704,0.61035,0.54413,0.59268,0.57514,0.53966,0.52276,0.47791000000000006,0.48131,0.4574,0.44966000000000006,0.49008999999999997,0.34552,0.33958,0.37158,0.34338,0.4045,0.44778999999999997,0.44428999999999996,0.6249899999999999,0.8530200000000001,0.9938799999999999,1.1468,1.2991,1.4718,1.7715,1.9564,1.9486,1.8995,1.7747,1.6011,1.4341,1.1425,0.8756799999999999,0.51885,0.12709,-0.13752999999999999,-0.20895999999999998,-0.25258,-0.22314,-0.16295,-0.14278,-0.16179000000000002,-0.16859000000000002,-0.20984,-0.19302,-0.23644,-0.13227,-0.17068,-0.17702,-0.11035999999999999,-0.055714,0.48705,1.0757,0.98974,0.91894,0.8910299999999999,0.92132,0.78655,0.59422,1.1643,1.5833,0.83442,-1.4159,1.0728,-0.33299999999999996,-2.2095,-3.8021,-4.5924,-4.0402,-3.1833,-2.0427,-1.6019,-1.3618,-0.61892,-0.32558000000000004,-0.33037,-0.30756999999999995,-0.38397,-0.42046999999999995,-0.40807,-0.34734,-0.3024,-0.48739,-0.38514,-0.42986,-0.42452,-0.35728000000000004,-0.44009,-0.5263899999999999,-0.44425,-0.4555,-0.56872,-0.5008600000000001,-0.5673,-0.7195199999999999,-0.70006,-0.64873,-0.81077,-0.83386,-0.86934,-0.8536600000000001,-0.69914,-0.78213,-0.6687,-0.55819,-0.50017,-0.49663999999999997,-0.36764,-0.29673,-0.20395,-0.13466,-0.15454,-0.058552999999999994,-0.038863,-0.094234,-0.035314,-0.082174,-0.041455,-0.010145999999999999,0.049399,-0.010672,0.026139,0.028522000000000002,0.077822,0.06658700000000001,0.11392000000000001,0.17623,0.23823000000000003,0.22889,0.1759,0.24698,0.35455,0.40552,0.36345,0.43091999999999997,0.50337
1,0.64649,0.68655,0.77573,0.82442,0.8174399999999999,0.85254,0.8486,0.79483,0.7999,0.78158,0.73698,0.81739,0.8861899999999999,0.83767,0.8296399999999999,0.86693,0.9352600000000001,0.98598,0.92107,0.8152,0.67688,0.54064,0.49956000000000006,0.55073,0.6330600000000001,0.56189,0.41173000000000004,0.32913000000000003,0.11024,-0.13272,-0.17364000000000002,-0.2045,-0.2572,-0.18596,-0.20626999999999998,-0.49886,-0.93017,-1.3904,-1.8361,-2.2783,-2.7545,-3.1523,-3.4367,-3.7064,-3.2844,-2.1671,-1.3316,0.12304000000000001,1.3021,0.63283,-0.013938999999999998,-0.6964199999999999,-1.4662,-2.1946,-2.6712,-2.7823,-2.5455,-2.0548,-1.459,-0.96024,-0.71186,-0.6381,-0.56429,-0.39858000000000005,-0.077597,0.27125,0.4816,0.5471199999999999,0.46792,0.41756000000000004,0.43705,0.41201000000000004,0.47108999999999995,0.5260100000000001,0.4527,0.4467,0.49436,0.50966,0.54889,0.49455,0.37351999999999996,0.43448000000000003,0.50549,0.47877,0.5464,0.55033,0.4806,0.50481,0.49285,0.41748,0.38565,0.37025,0.35431,0.28265999999999997,0.13662,0.14976,0.22548,0.16751,0.22608000000000003,0.30212,0.21149,0.19743,0.22721999999999998,0.16493,0.14933,0.20324,0.18714,0.11935,0.097457,0.074397,-0.004953,-0.096876,-0.15546,-0.17331,-0.10430999999999999,0.015197,0.022371000000000002,-0.037679000000000004,0.014327000000000001,0.094262,0.10405,0.19794,0.3417,0.31289,0.19712000000000002,0.21044000000000002,0.31977,0.5061,0.61244,0.40775,0.28843,0.39796,0.44081000000000004,0.57311,0.70821,0.68577,0.69039,0.63671,0.54452,0.58438
0,-0.066298,-0.061698,-0.081238,-0.095493,-0.115,-0.053564999999999995,0.000312,0.051911,0.16211,0.034654000000000004,0.039294,0.068452,0.038338,0.17759,0.19238,0.15785,0.28441,0.19099000000000002,0.35579,0.45577,0.37913,0.42465,0.42107,0.5294300000000001,0.57108,0.66409,0.73278,0.57129,0.54788,0.67814,0.68014,0.62769,0.66305,0.50521,0.4624,0.57533,0.46892,0.43832,0.47673000000000004,0.5150600000000001,0.45076000000000005,0.35641,0.29293,0.32335,0.2901,0.39839,0.43267,0.6823600000000001,1.1466,1.3422,1.3791,1.4865,1.7834,2.113,2.2339,2.2368,2.0669,1.7785,1.6117,1.3602,0.9774799999999999,0.6008600000000001,-0.13834000000000002,-0.20204,-0.25019,-0.38118,-0.39088,-0.29636999999999997,-0.25406,-0.29901,-0.25964,-0.39603,-0.3558,-0.31001,-0.26850999999999997,-0.32352,-0.36856,-0.17426,-0.018642,0.8221799999999999,0.97844,1.0517,1.3739,1.4271,1.4109,0.79651,0.61335,1.787,0.8181,-1.0367,-2.5137,-3.6157,-4.2187,-3.3296,-2.1124,-1.7714,-1.3562,-0.33888,-0.17495,-0.19059,-0.15598,-0.18813,-0.076439,-0.25474,-0.20893,-0.21343,-0.29436999999999997,-0.23875,-0.29343,-0.30484,-0.43583999999999995,-0.4009,-0.65922,-0.5612,-0.61259,-0.62854,-0.5737399999999999,-0.76615,-0.9282,-0.8447,-0.88165,-1.0539,-1.0766,-1.1314,-1.1985,-1.0648,-1.0793,-0.99971,-1.006,-1.0905,-0.95639,-0.7421,-0.54923,-0.53473,-0.42755,-0.37169,-0.29669,-0.18373,-0.20357999999999998,-0.25835
0,0.63045,0.63439,0.49183999999999994,0.4726,0.49167,0.43823999999999996,0.45091000000000003,0.34271,0.28647,0.29017,0.40823000000000004,0.36178,0.33766,0.19058,0.10675,0.14403,0.16580999999999999,0.23639000000000002,0.27274,0.5234800000000001,1.0265,1.1545,1.2012,1.2547,1.6361,2.0912,2.2301,2.2171,1.893,1.7499,1.561,1.2042,0.6834399999999999,0.016891999999999997,-0.50947,-0.81742,-0.9638100000000001,-0.78089,-0.9168700000000001,-0.9964700000000001,-0.9096299999999999,-0.9481799999999999,-0.94527,-1.1337,-0.9478700000000001,-0.9926799999999999,-1.0499,-1.0208,-1.087,-0.7791100000000001,0.040050999999999996,0.43851,0.30835999999999997,0.77149,0.44928,-0.11314,-1.0719,-0.7318,1.3262,0.53598,-1.8663,-2.9912,-4.2395,-4.4967,-2.9569,-1.9327,-1.5247,-0.68361,0.23371,0.20313,0.094497,0.079233,-0.003074,0.082665,0.096524,0.13707,-0.033783,-0.020947,-0.065277,0.0006799999999999999,-0.16627999999999998,-0.18654,-0.13614,-0.34309,-0.28798,-0.36222,-0.48822,-0.55885,-0.53878,-0.53563,-0.70314,-0.75285,-0.64015,-0.89995,-0.97446,-0.64003,-0.70332,-0.63122,-0.6360399999999999,-0.46355,-0.5077,-0.44016000000000005,-0.3083,-0.33436,0.003452,0.069094,0.17501,0.2405,0.24061999999999997,0.22148,0.22344,0.44201999999999997,0.3422,0.45515,0.38963000000000003,0.5042300000000001,0.51208,0.37195,0.44228999999999996,0.48828,0.42823,0.49633999999999995,0.42931,0.4228,0.5706100000000001,0.54037,0.57881,0.5987,0.69919,0.74202,0.7508699999999999,0.8172699999999999,0.81914,0.71596,0.71612,0.7548199999999999,0.6049800000000001,0.6523100000000001,0.68102,0.6351100000000001
0,-2.5683,-3.6092,-4.2927,-3.3439,-1.9105,-1.4463,-1.0484,0.11515999999999998,0.15008,0.11525,0.22751999999999997,0.092927,0.08531699999999999,0.022072,0.05575599999999999,0.034115,-0.04503,0.012614,-0.05299500000000001,-0.20134000000000002,-0.30002,-0.29197,-0.37674,-0.31333,-0.55837,-0.5714100000000001,-0.58329,-0.74703,-0.8730100000000001,-0.96706,-0.87815,-0.91646,-0.97104,-1.1329,-1.0789,-1.0697,-1.2282,-1.1011,-1.1703,-1.0402,-0.7915800000000001,-0.74961,-0.56243,-0.5051899999999999,-0.44293000000000005,-0.33841,-0.30634,-0.23845,-0.13037,-0.19074000000000002,-0.11445,0.011144,-0.051104000000000004,-0.052237,-0.036398,0.044084,-0.006495999999999999,-0.010403,0.062109000000000004,0.16555999999999998,0.084963,0.28136,0.31109000000000003,0.26343,0.26350999999999997,0.31265,0.33662,0.36098,0.44241,0.45906,0.58537,0.64987,0.5455,0.6319899999999999,0.5926,0.47181000000000006,0.44965,0.48573,0.43488999999999994,0.49738000000000004,0.42058999999999996,0.38425,0.30963,0.37887,0.2773,0.17298,0.31379,0.26175,0.18331,0.10509,0.20855,0.21241999999999997,0.12434,0.207,0.12591,0.27238,0.3875,0.60187,0.89812,1.2275,1.2881,1.2939,1.7614,2.3185,2.1471,1.9759,1.7416,1.3934,1.3687,0.86069,0.53047,-0.048846,-0.53974,-0.5566399999999999,-0.5475800000000001,-0.5373899999999999,-0.6897399999999999,-0.57709,-0.48686999999999997,-0.45274,-0.46166,-0.5256,-0.44383999999999996,-0.48562,-0.41284,-0.36738000000000004,-0.31135999999999997,0.1146,1.1545,1.42,1.2973,2.0582,2.2828,1.7899,0.35429,-0.24151,0.57095,2.2632,1.1502,-0.9619200000000001
0,0.33947,0.18579,0.086655,0.0415,-0.062423,-0.16108,-0.18625999999999998,-0.26838,-0.4048,-0.39277,-0.52454,-0.5704899999999999,-0.56567,-0.77393,-0.8432700000000001,-0.83342,-0.7674,-0.8255100000000001,-0.86365,-0.78359,-0.78509,-0.63764,-0.62185,-0.48331,-0.33039,-0.24896,-0.27098,-0.19061,-0.080317,-0.058991999999999996,-0.095694,-0.04036,-0.018338999999999998,-0.11141,-0.11282,0.0064340000000000005,-0.041908999999999995,-0.030952999999999998,-0.0382,-0.07990599999999999,-0.080808,-0.099827,-0.038514,-0.015897,-0.0205,-0.066036,0.098159,0.2135,0.18864,0.19739,0.27216999999999997,0.26838,0.33011,0.43173999999999996,0.28563,0.3943,0.35391,0.24896999999999997,0.37416,0.34469,0.34635,0.31226,0.25516,0.21635,0.1395,0.088185,0.017871,0.052451,0.042449,-0.11699999999999999,-0.009559999999999999,-0.11619000000000002,-0.17499,-0.027491,-0.12255,0.024897,0.14895,0.43121000000000004,0.64205,0.7935300000000001,1.0211,1.187,1.5043,1.7823,1.7489,1.6269999999999998,1.6991,1.3679,1.0411,0.67445,0.50566,0.17454,-0.25292,-0.6189100000000001,-0.73835,-0.72827,-0.7268100000000001,-0.83515,-0.8143699999999999,-0.74924,-0.75729,-0.64272,-0.66883,-0.64689,-0.66128,-0.71835,-0.64012,-0.51474,-0.44928,-0.15625,0.51508,1.0205,1.0162,1.3474,2.1127,2.0822,1.8609,1.315,1.7836,1.1262,2.6871,0.15938,-2.5509,-4.6722,-4.5905,-3.4719,-2.0517,-1.0531,-0.8488100000000001,-0.07194600000000001,0.57944,0.64378,0.61298,0.5029399999999999,0.52988,0.51965,0.50913,0.46282,0.30875,0.42318
0,-0.52958,-0.5412100000000001,-0.60251,-0.5635100000000001,-0.60768,-0.70336,-0.73216,-0.83655,-0.6581600000000001,-0.75233,-0.9153100000000001,-0.816,-0.97005,-0.88884,-0.83509,-0.94796,-0.9389200000000001,-0.9062399999999999,-0.74946,-0.66996,-0.64148,-0.54575,-0.62254,-0.46413999999999994,-0.26521999999999996,-0.22215,-0.23163000000000003,-0.21249,-0.041014999999999996,-0.084876,-0.089282,-0.06261599999999999,-0.12165,-0.001875,-0.039678,0.020291,0.054587000000000004,0.070728,0.10089,0.070771,0.16434,0.22925,0.14736,0.1649,0.18395,0.21186,0.36930999999999997,0.34149,0.4626,0.44615,0.31437,0.34365999999999997,0.43251999999999996,0.5493,0.6045,0.5586800000000001,0.45093,0.51058,0.5526399999999999,0.48013,0.38216,0.38845999999999997,0.41343,0.40956,0.47426,0.46261,0.47306000000000004,0.51644,0.39473,0.20999,0.34717,0.46182,0.37011,0.38666999999999996,0.5302100000000001,0.6110399999999999,0.69884,0.90702,1.0809,1.2784,1.3739,1.5559,1.9317,1.9781,1.9261,1.7353,1.608,1.4317,1.2327,0.9056200000000001,0.5443,0.19124000000000002,-0.037834,-0.1202,-0.15648,-0.047527999999999994,-0.12574000000000002,-0.14612999999999998,-0.061792999999999994,-0.12395999999999999,-0.087323,-0.10909,0.010477,0.07601799999999999,-0.17008,-0.12057999999999999,-0.015458000000000001,0.024072,0.28797,1.0135,1.5647,1.5011,1.8403,2.0484,1.5369,0.8173699999999999,0.4012,1.1489,0.65194,0.12105999999999999,-1.6246,-3.0645,-4.1759,-4.1169,-3.3015,-2.0938,-1.7816,-1.5316,-0.79145,-0.5062800000000001,-0.48718999999999996,-0.42232,-0.466,-0.4912,-0.52415,-0.54146,-0.44743,-0.44195,-0.62731,-0.5206
0,0.36471,0.29595,0.24858000000000002,0.17004,0.15382,0.007561,0.048136,-0.038842,-0.15975999999999999,-0.052953,-0.11971,-0.19047,-0.25506999999999996,-0.27498,-0.41353,-0.33735,-0.13709000000000002,0.008034,0.20059000000000002,0.25467,0.28713,0.51215,0.67857,0.84244,0.6668,0.5969800000000001,0.39207,0.14936,-0.012666,-0.32088,-0.62744,-0.9692200000000001,-1.3846,-1.5819999999999999,-1.6549,-1.7459,-1.7423,-1.7762,-1.8642,-1.9358,-1.945,-1.9241,-2.0584,-2.003,-2.1082,-2.1122,-2.1318,-2.1245,-2.0564,-1.8659999999999999,-1.3090000000000002,-1.1253,-1.0144,-0.75171,-0.72611,-0.9940000000000001,-1.08,-1.0722,-0.5745100000000001,-2.1997,0.60822,-0.64803,-1.5835,-1.9599,-2.2479,-1.7045,-0.44651,0.27634000000000003,0.29598,0.8404200000000001,1.2617,1.2139,1.1327,1.1999,1.2843,1.2316,1.2041,1.1977,1.0851,1.1409,1.1288,1.0475,0.98601,0.9287200000000001,0.9052600000000001,0.82437,0.74746,0.8273299999999999,0.65291,0.70594,0.55293,0.5022399999999999,0.5333399999999999,0.42228000000000004,0.34478000000000003,0.35813,0.40166999999999997,0.45024,0.44136000000000003,0.39475,0.43366000000000005,0.52753,0.50258,0.62208,0.5177,0.72325,0.71253,0.6239600000000001,0.69667,0.72246,0.69996,0.77441,0.71336,0.73475,0.75665,0.69814,0.69968,0.65389,0.64235,0.5888399999999999,0.57699,0.6006199999999999,0.6186,0.64788,0.59404,0.62566,0.70811,0.57348,0.6500100000000001,0.56239,0.5422600000000001,0.5714199999999999,0.57194,0.53117,0.52151,0.48916000000000004,0.54085,0.46971999999999997,0.42285,0.49298000000000003
0,1.415,1.2229999999999999,1.0307,0.88631,0.55208,0.2509,-0.11542999999999999,-0.20968,-0.23940999999999998,-0.28085,-0.19902,-0.27675,-0.23210999999999998,-0.25,-0.18748,-0.18264,-0.14251,-0.16182,-0.19705999999999999,-0.21397,-0.13602,-0.10983,0.028189,0.47326,0.81772,0.9439799999999999,0.98231,1.1893,1.3189,1.3004,1.2411,1.7232,2.2309,1.929,-0.8810899999999999,0.070827,-3.6667,-4.4099,-4.5615,-4.0641,-3.0149,-1.7666,-1.2378,-0.76295,-0.12286,-0.10676,-0.13969,-0.1768,-0.049598,-0.15214,-0.14962999999999999,-0.10486,-0.1797,-0.10776,-0.20947,-0.29861,-0.26416,-0.27285,-0.40019,-0.38675,-0.38502,-0.41305,-0.49046999999999996,-0.5092800000000001,-0.6036,-0.6228600000000001,-0.62468,-0.69308,-0.66492,-0.67857,-0.6932699999999999,-0.63161,-0.6705399999999999,-0.68765,-0.6335,-0.60677,-0.55784,-0.48436999999999997,-0.34984,-0.25479,-0.18081,-0.14403,-0.13657,-0.028395999999999998,-0.035559,-0.0022559999999999998,-0.038935000000000004,0.040656,0.10027,-0.060551999999999995,0.080653,0.052878999999999995,0.08504199999999999,0.10156,0.037263,0.16472,0.24831,0.12648,0.15198,0.22123,0.25734,0.29884,0.32689,0.32576,0.31135999999999997,0.34999,0.40245,0.39304,0.51983,0.40528000000000003,0.4192,0.36830999999999997,0.4198,0.44383,0.38004,0.39084,0.36724,0.23794,0.29996,0.32308000000000003,0.28059,0.30459,0.17725,0.27575,0.22063000000000002,0.1806,0.28069,0.19179000000000002,0.26047,0.44625,0.5756100000000001,0.5587,0.7478199999999999,0.8994700000000001,1.0451,1.3494,1.6487,1.6935,1.5809,1.5276
1,0.69217,0.65786,0.6305,0.58859,0.60492,0.57182,0.56021,0.62068,0.5815100000000001,0.53051,0.53969,0.5325300000000001,0.4883,0.5452,0.4354,0.46513999999999994,0.38572,0.38466999999999996,0.24374,0.036284,-0.13677999999999998,0.011531,-0.1384,-0.40392,-0.6065699999999999,-0.9794700000000001,-1.2722,-1.4039,-1.5269,-1.7206,-2.5553,-3.2976,-4.0674,-4.8733,-5.462000000000001,1.3684,0.7445,-0.27855,-1.0442,-1.5063,-2.0495,-2.0761,-1.621,-1.0383,-0.57586,-0.52478,-0.28565,0.28884,0.34645,0.37192,0.37201,0.41826,0.41348999999999997,0.36969,0.38139,0.34591,0.27455999999999997,0.29752,0.23923000000000003,0.30262,0.38304,0.31819000000000003,0.34695,0.26894,0.22707,0.28970999999999997,0.24174,0.15125999999999998,0.07837999999999999,0.19562000000000002,0.12904000000000002,0.057214,0.000117,-0.008490000000000001,0.048913,-0.082216,-0.07085,-0.083112,-0.13441,-0.29991,-0.19395,-0.24435,-0.23410999999999998,-0.27712,-0.30704000000000004,-0.29489,-0.24433000000000002,-0.2157,-0.22559,-0.23429,-0.085383,-0.026174,-0.09757300000000001,-0.020725,0.058116999999999995,0.10803,0.21066,0.23309000000000002,0.24056,0.29736,0.3109,0.31154,0.28859,0.28801,0.42927,0.38265,0.36729,0.31835,0.38669000000000003,0.47631999999999997,0.39571,0.43275,0.44366000000000005,0.397,0.43901,0.47248999999999997,0.55498,0.51827,0.5573199999999999,0.54774,0.5421199999999999,0.58921,0.63961,0.69652,0.6579,0.6469600000000001,0.65938,0.65358,0.66805,0.76581,0.73047,0.77171,0.74102,0.74833,0.70012,0.7633800000000001,0.74385,0.78777,0.73488,0.7398399999999999
0,-0.58522,-0.76666,-0.79097,-0.80186,-0.78109,-0.8395799999999999,-0.8836,-0.9626899999999999,-1.0011,-0.8605299999999999,-1.0546,-1.0802,-0.9296399999999999,-0.8737299999999999,-0.75481,-0.77468,-0.59968,-0.50788,-0.39955999999999997,-0.27776,-0.1974,-0.09647599999999999,-0.085535,0.072032,0.026367,-0.001737,0.11889000000000001,0.089943,0.081446,0.12829000000000002,0.20874,0.24852,0.16259,0.2259,0.19152,0.19748,0.24375,0.27369,0.21911,0.30186,0.38683,0.3083,0.39288,0.44896,0.43855,0.38861999999999997,0.5343,0.50038,0.55615,0.59487,0.52361,0.53347,0.55287,0.47928000000000004,0.54167,0.47386999999999996,0.43453,0.47615,0.45187,0.5522,0.43204,0.42453,0.5301,0.38111999999999996,0.44473,0.36,0.35162,0.46358,0.37125,0.41088,0.5562600000000001,0.54033,0.52652,0.7548699999999999,0.9099,1.0033,1.2058,1.3576,1.7730000000000001,1.8101,1.8365,1.8229,1.5582,1.4522,1.2185,0.89245,0.64054,0.28715,-0.059387999999999996,-0.096981,-0.08734299999999999,-0.22405,-0.25106,-0.20976,-0.20369,-0.12399,-0.22211,-0.16163,-0.1299,-0.23606999999999997,-0.23071,-0.15762,-0.19058,0.037502999999999995,0.3827,1.0375,1.1875,1.3425,1.6012,1.6226,1.2777,1.0301,1.2659,1.4040000000000001,-0.2636,0.88008,-1.2324,-3.3866,-4.0791,-3.9533,-3.3888,-2.5723,-1.8218,-1.6763,-1.0562,-0.50555,-0.5842,-0.57776,-0.4663,-0.45796000000000003,-0.40755,-0.60165,-0.53854,-0.49028999999999995,-0.49296999999999996,-0.47335,-0.48994,-0.44054,-0.5601,-0.73561
1,0.41894,0.41189,0.38945,0.33558000000000004,0.33058000000000004,0.37529,0.38658000000000003,0.3896,0.42808999999999997,0.45891000000000004,0.47308999999999996,0.47651000000000004,0.40125,0.27107,0.24599000000000001,0.36795,0.46806000000000003,0.40941,0.30196999999999996,0.31506,0.36080999999999996,0.38234,0.44731000000000004,0.46853,0.47155,0.51156,0.50163,0.50117,0.54955,0.57528,0.58653,0.60827,0.63375,0.63283,0.6199399999999999,0.6311,0.64681,0.68762,0.74853,0.7652399999999999,0.7279800000000001,0.6795100000000001,0.71272,0.8012199999999999,0.8112699999999999,0.7521899999999999,0.64968,0.5886,0.6776399999999999,0.77551,0.7934399999999999,0.77265,0.7460100000000001,0.75883,0.75092,0.69993,0.58529,0.44735,0.46216,0.46338999999999997,0.35076999999999997,0.26468,0.090573,-0.12046,-0.31828,-0.55309,-0.67381,-0.7702399999999999,-0.96462,-1.1965,-1.5534,-2.0379,-2.5455,-2.967,-3.3447,-3.7547,-3.9502,-3.8813,-3.1909,-2.0343,-1.3374,-0.11442999999999999,0.38564,-0.10518,-0.43316000000000004,-0.74498,-0.94101,-1.3724,-1.6707,-1.6358,-1.5659,-1.4393,-1.1972,-0.857,-0.50872,-0.34618000000000004,-0.33393,-0.1739,0.12944,0.28734,0.30541999999999997,0.33674,0.31253000000000003,0.20661999999999997,0.22514,0.37206,0.40684000000000003,0.35491,0.35644000000000003,0.37151,0.35825999999999997,0.31601,0.27354,0.31456999999999996,0.3756,0.34135,0.33408000000000004,0.40125,0.39959,0.36655,0.37903000000000003,0.38571,0.38447,0.40494,0.42103,0.36998000000000003,0.32261,0.38497,0.44785,0.41786999999999996,0.40207,0.43059,0.42681,0.40745,0.34214,0.30109,0.38987,0.40636,0.34636,0.38345
1,0.038304000000000005,0.13127,0.10520999999999998,0.068288,-0.034776999999999995,-0.099005,-0.003372,-0.081124,-0.08369299999999999,-0.009464,-0.092684,-0.12787,-0.10854000000000001,-0.11095999999999999,-0.096845,-0.1606,-0.093218,-0.027647,-0.025363999999999998,0.036348,-0.009940000000000001,0.068749,0.12732000000000002,0.13326,0.25711999999999996,0.25631,0.24695999999999999,0.33185,0.3795,0.38688,0.41505,0.45385,0.47826,0.47955,0.48389,0.48403999999999997,0.55108,0.57301,0.5041399999999999,0.5335300000000001,0.49527,0.5575600000000001,0.58155,0.47797,0.58897,0.5898899999999999,0.5986199999999999,0.5633199999999999,0.5158699999999999,0.6301100000000001,0.6047899999999999,0.63372,0.66474,0.70402,0.6693399999999999,0.5768399999999999,0.66752,0.67257,0.73845,0.7591399999999999,0.69257,0.72648,0.74285,0.8319,0.8379,0.82632,0.75138,0.55772,0.5043,0.43177,0.40447,0.5232600000000001,0.49954,0.39394,0.29058,0.11707000000000001,0.076328,0.13217,0.36673,0.48975,0.19532,-0.13975,-0.6675399999999999,-1.3246,-1.7619,-2.4651,-3.116,-3.5972,-3.8131,-2.5068,-2.2337,-0.098631,0.18317999999999998,-1.1701,-1.6862,-2.8987,-3.1786,-3.2201,-2.9936,-2.4606,-1.7396,-1.2048,-0.79208,-0.58829,-0.57024,-0.20965,0.21145,0.55072,0.75808,0.66625,0.60175,0.64844,0.62384,0.5787,0.59915,0.66811,0.61464,0.44233,0.44992,0.51541,0.49662,0.5562600000000001,0.62642,0.56417,0.48267,0.51084,0.5150600000000001,0.39511999999999997,0.41861000000000004,0.52874,0.42076,0.32614,0.22701999999999997,0.19699999999999998,0.19964,0.10945,0.21569000000000002,0.19908,0.16399999999999998,0.1304
0,-0.6259,-0.69053,-0.67574,-0.77766,-0.8363700000000001,-0.79987,-0.99469,-0.98411,-0.9566600000000001,-0.9387700000000001,-0.91745,-0.9294600000000001,-0.79966,-0.74141,-0.6434,-0.6253,-0.59133,-0.43501000000000006,-0.35796999999999995,-0.23459000000000002,-0.1614,-0.19969,-0.16554000000000002,-0.11076,0.027556,0.038525,0.10288,0.048411,0.031282,0.06752000000000001,0.04435,0.14714000000000002,0.054560000000000004,0.059197,0.13257,0.13352,0.17812999999999998,0.33341,0.26719,0.33311999999999997,0.32443,0.40681,0.52079,0.40576,0.55567,0.48311000000000004,0.55278,0.58704,0.41458,0.61115,0.56209,0.44975,0.48539,0.42408999999999997,0.42271000000000003,0.37372,0.36558,0.37867,0.30449,0.33541,0.29384,0.226,0.26377,0.26811999999999997,0.21708000000000002,0.18748,0.28481,0.28574,0.5485,0.71067,0.79335,1.0636,1.1922,1.4477,1.7112,1.9689,1.9289,1.8897,1.736,1.5398,1.2608,0.91822,0.65392,0.41462,-0.063794,-0.32723,-0.39461,-0.31126,-0.27505,-0.33685,-0.23264,-0.35836,-0.37485999999999997,-0.39084,-0.44628999999999996,-0.30119,-0.2863,-0.2591,-0.22503,-0.42136,-0.30529,0.0044670000000000005,0.6945,1.064,1.0057,1.4682,1.7857,1.6540000000000001,1.3033,1.3272,1.8222,1.7730000000000001,-0.8278399999999999,0.79709,-2.1553,-3.7263,-4.2589999999999995,-3.9161,-3.1763,-1.8919,-1.2619,-1.1271,-0.39541,-0.13059,-0.22265,-0.12154000000000001,-0.13052,-0.11234000000000001,-0.14549,-0.21058000000000002,-0.070717,-0.20154,-0.24548000000000003,-0.24828000000000003,-0.31235,-0.37594,-0.42268,-0.44097,-0.40904,-0.42658
0,0.35517,0.30654000000000003,0.34584000000000004,0.35746999999999995,0.47785,0.45808000000000004,0.57611,0.68003,0.8748600000000001,1.1351,1.1401,1.2011,1.4025,1.8187,1.625,1.0765,0.67492,0.71609,0.65717,0.66492,0.6060399999999999,0.21391,-0.21579,-0.45976000000000006,-0.60217,-0.5196,-0.60337,-0.54955,-0.51473,-0.5956899999999999,-0.47783000000000003,-0.4814,-0.44578999999999996,-0.41067,-0.58498,-0.5637800000000001,-0.29536999999999997,0.56884,1.2463,1.1374,1.5308,1.4686,1.4374,0.44356,0.62227,0.7740199999999999,1.1276,-1.1738,-2.8491,-4.1865,-4.8808,-4.0543,-2.6456,-1.7998,-1.4546,-0.30196,0.15946,0.023263,0.13288,0.1805,0.10837999999999999,-0.055378,0.060335,0.049616,0.13662,-0.034582,-0.099246,-0.1579,-0.11625999999999999,-0.21218,-0.39179,-0.17140999999999998,-0.24268,-0.44205,-0.5625100000000001,-0.66223,-0.77515,-0.79243,-0.8300700000000001,-0.91466,-0.9365700000000001,-1.0266,-0.9867100000000001,-0.99623,-1.0026,-1.1463,-1.0418,-0.78095,-0.6861,-0.5038100000000001,-0.48084,-0.34231,-0.28468000000000004,-0.19109,-0.16153,-0.059786,-0.002961,0.13746,0.13229000000000002,0.078224,0.049735,0.082384,0.041792,0.023756,0.056148,0.079121,0.04423,0.082819,0.080077,0.127,0.26211,0.28523000000000004,0.2523,0.41048999999999997,0.43017,0.4759,0.4728,0.66274,0.79877,0.73087,0.9413600000000001,0.85362,0.8341,0.82555,0.82078,0.84135,0.72388,0.78209,0.82578,0.7018399999999999,0.61087,0.5253399999999999,0.5865199999999999,0.6328600000000001,0.59295,0.54682,0.38245,0.46238999999999997,0.43996,0.45968000000000003
0,0.64382,-1.8366,-3.4779,-3.8392,-3.7939999999999996,-3.2358,-2.1830000000000003,-1.6595,-1.5087,-0.62929,-0.31366,-0.45233,-0.40841,-0.38944,-0.27132,-0.28397,-0.52122,-0.7590600000000001,-0.5651,-0.53664,-0.56194,-0.5330199999999999,-0.6672100000000001,-0.7405,-0.54711,-0.7262,-0.7507,-0.7078399999999999,-0.7245,-0.92417,-0.88069,-0.9107700000000001,-1.1295,-1.2909,-1.143,-0.93652,-0.9888399999999999,-1.0854,-1.1051,-1.0256,-0.83796,-0.73698,-0.7,-0.6613399999999999,-0.50155,-0.39173,-0.35547,-0.31133,-0.21474000000000001,-0.044056,-0.062739,-0.20117000000000002,-0.15846,0.0116,0.008938,0.1215,0.083233,-0.001576,0.042794,0.065051,0.14712999999999998,0.14937999999999999,0.045572,0.20331,0.23659000000000002,0.3394,0.34292,0.33255999999999997,0.42353,0.45916,0.48197,0.5042399999999999,0.50213,0.41026999999999997,0.5162800000000001,0.56188,0.49951999999999996,0.55005,0.49945,0.43218,0.51564,0.64047,0.48875,0.36396999999999996,0.33953,0.51507,0.53452,0.42263999999999996,0.396,0.44113,0.46056,0.35353,0.38887,0.40381,0.4167,0.46784,0.55993,0.76681,0.9441700000000001,1.0046,1.1056,1.348,1.5786,1.859,1.8443,1.8494,1.7152,1.4812,1.3477,1.1486,1.0103,0.69385,0.26091,0.060108,0.024038,0.081762,0.005406,0.021951,0.013032,0.009042,-0.1215,-0.073091,-0.0567,-0.086188,0.016505000000000002,0.007492,0.048658,0.08951,0.046445,0.4984,0.99811,1.0388,0.92076,1.0594,1.1207,1.1096,1.2839,1.5889,2.2412,0.9960200000000001
0,-0.1616,-0.058072000000000006,0.20494,0.80423,0.96191,1.0357,1.4037,1.6065,1.6477,1.3849,1.3726,1.902,2.0725,0.10545,0.11427000000000001,-2.1751,-3.7946,-4.4103,-4.0873,-3.3354,-2.201,-1.5956,-1.3015,-0.61941,-0.27144,-0.23693000000000003,-0.28926,-0.30484,-0.32253000000000004,-0.20064,-0.32677,-0.33148,-0.28769,-0.37272,-0.34403,-0.3991,-0.46807,-0.4055,-0.5161600000000001,-0.57021,-0.55091,-0.73407,-0.59882,-0.63326,-0.6627,-0.7927,-0.85801,-0.8614799999999999,-0.9446100000000001,-0.8463200000000001,-0.8205600000000001,-0.77712,-0.8107300000000001,-0.74319,-0.63708,-0.6067899999999999,-0.5331600000000001,-0.42127,-0.29706,-0.205,-0.15817,-0.1099,-0.070188,-0.030004000000000003,0.0766,0.12120999999999998,0.06731799999999999,0.068346,0.045011,0.024259,0.057083,0.12791,0.059624,0.08839,0.1322,0.13135,0.23936999999999997,0.27011,0.21378000000000003,0.33153,0.34565,0.35941999999999996,0.36967,0.45495,0.49363999999999997,0.49038000000000004,0.56235,0.49013999999999996,0.46875,0.47024,0.45425,0.55056,0.57295,0.40793,0.40681999999999996,0.52512,0.37792,0.36184,0.34681999999999996,0.42027,0.28806,0.28326999999999997,0.3278,0.31740999999999997,0.305,0.31806,0.26406999999999997,0.29424,0.36125,0.35354,0.51602,0.68353,0.7941699999999999,1.0378,1.2921,1.4063,1.645,1.7798,1.6433,1.6403,1.4605,1.2419,1.0943,0.7886,0.56799,0.24035,-0.010443000000000001,-0.28773000000000004,-0.32365,-0.24854,-0.24011,-0.28713,-0.28154,-0.25973,-0.22558000000000003,-0.22100999999999998,-0.22774,-0.28398,-0.30146,-0.25582
0,0.96009,0.95104,0.80423,0.87302,0.82401,0.41186999999999996,0.008875,-0.34313,-0.21813000000000002,-0.23976999999999998,-0.11026,-0.17219,-0.24850999999999998,-0.34551,-0.23001999999999997,-0.19499,-0.26384,-0.3204,-0.21803000000000003,-0.13448,-0.003621,0.82829,1.3651,1.4804,1.926,1.5959999999999999,1.5888,0.5471699999999999,0.47526999999999997,0.8029999999999999,1.0444,-0.94826,-2.8448,-3.7584,-4.7072,-4.3923,-2.9772,-1.7852,-1.6113,-0.67101,0.11427000000000001,-0.14386,0.027089999999999996,-0.004303,-0.11709000000000001,-0.06719800000000001,-0.01794,0.04937,-0.10222,0.065389,-0.062377999999999996,-0.19005,-0.18375,-0.32881,-0.43799,-0.40186,-0.42273,-0.61549,-0.51326,-0.74422,-0.88533,-0.9133899999999999,-1.0358,-1.047,-1.0947,-0.9676600000000001,-1.0586,-1.1144,-0.97764,-0.97204,-1.0237,-0.9736899999999999,-0.68762,-0.55157,-0.48527,-0.43381000000000003,-0.32936,-0.29745,-0.17614000000000002,0.011285,-0.088896,0.08071,0.12674000000000002,-0.060372,-0.006924,-0.032164,0.057913,0.06949,-0.02885,0.095401,0.083264,0.084118,0.08112799999999999,0.17044,0.17795,0.26316,0.33674,0.42152,0.45316999999999996,0.60072,0.5381100000000001,0.52778,0.70611,0.5775899999999999,0.7620899999999999,0.7229399999999999,0.76047,0.7834300000000001,0.81886,0.80716,0.8233,0.8221700000000001,0.63998,0.62464,0.69614,0.6724100000000001,0.41408,0.52984,0.60642,0.34874,0.49211000000000005,0.46596000000000004,0.35498,0.48751000000000005,0.48963,0.33423,0.34705,0.32654,0.2931,0.40524,0.38704,0.24278000000000002,0.22109,0.58796,0.87375,1.0494,1.3062,1.5995,1.6096,1.4207
0,-0.010633,0.46953999999999996,1.031,0.94632,0.7997,0.47051000000000004,0.37472,0.12259,0.23883000000000001,0.34121,-0.11777,-0.5583,-1.1026,-1.2563,-1.1823,-1.2108,-0.9731200000000001,-1.2009999999999998,-1.2717,-1.1749,-1.0787,-1.0606,-1.2793,-1.1854,-0.9954700000000001,-0.8901700000000001,-0.10400999999999999,1.5046,1.392,1.3311,1.1975,1.0929,-0.12933,-1.0383,-1.4899,4.0581,2.0878,0.42312,-2.0589,-3.2377,-4.5268,-3.8362,-1.975,-0.78335,-0.38104,0.89943,1.5067,1.1749,1.2347,1.1737,1.2208,1.2612,1.2909,1.2859,1.1379,0.90327,0.9690000000000001,0.89833,0.7259,0.7509899999999999,0.65091,0.5053300000000001,0.39966,0.22805999999999998,0.37146999999999997,0.052599,0.016931,-0.29166,-0.17994000000000002,-0.28575,-0.5240600000000001,-0.54779,-0.5623199999999999,-0.59154,-0.7994399999999999,-0.71204,-0.64139,-0.65578,-0.51877,-0.40918000000000004,-0.41203999999999996,-0.21306999999999998,0.029181,0.11180999999999999,0.056617999999999995,0.26037,0.16303,0.09261,0.007947,0.068281,0.21875,0.32834,0.36364,0.21675,0.18037999999999998,0.20338,0.0403,0.27021999999999996,0.15253,0.2083,0.32871999999999996,0.10004,0.3405,0.27334,0.39225,0.3792,0.47153999999999996,0.42477,0.4245,0.59529,0.47448999999999997,0.62633,0.50017,0.49472,0.42461000000000004,0.5088699999999999,0.44181000000000004,0.36926,0.28238,0.27724,0.26045999999999997,-0.000478,-0.027998000000000002,-0.21547,0.049414,0.004614,-0.20377,-0.24665,-0.34642,-0.08897100000000001,-0.42668999999999996,-0.37818,-0.22328,-0.34046,-0.46756000000000003,-0.26919,-0.26093,-0.32824000000000003,-0.26778,-0.41086999999999996
0,-0.264,-0.29063,-0.24448000000000003,-0.26435,-0.39692,-0.26036,-0.23765999999999998,-0.31785,-0.45366000000000006,-0.39074000000000003,-0.37811,-0.3764,-0.54545,-0.57794,-0.51598,-0.62017,-0.59216,-0.69415,-0.74562,-0.84665,-0.8585299999999999,-0.9016299999999999,-0.94332,-0.98695,-0.9903299999999999,-0.85534,-0.8728899999999999,-0.88899,-0.75579,-0.67424,-0.52477,-0.43045,-0.36495,-0.33203,-0.25816999999999996,-0.23831,-0.23243000000000003,-0.018539,0.020273,0.086156,0.078202,0.025294999999999998,0.12420999999999999,0.17159000000000002,0.11499000000000001,0.07073099999999999,0.14261,0.17475,0.20983000000000002,0.26225,0.27375,0.28317,0.36830999999999997,0.29078000000000004,0.40621,0.40216999999999997,0.48791,0.66688,0.54006,0.4823,0.55783,0.52782,0.65789,0.57586,0.5937,0.48623,0.58831,0.5955600000000001,0.57692,0.52913,0.48775,0.48595,0.47081999999999996,0.35146,0.41418,0.38184,0.38729,0.52013,0.4177,0.36255,0.32395999999999997,0.45569,0.42603,0.50459,0.75384,0.78904,1.0403,1.1628,1.3858,1.5674,1.7914,2.0368,1.8587,1.8473,1.652,1.4187,1.2931,0.8469399999999999,0.46192,0.065092,-0.22505,-0.34815,-0.39474000000000004,-0.34010999999999997,-0.43075,-0.45543,-0.3385,-0.33033,-0.40708,-0.5052399999999999,-0.33235,-0.40244,-0.47331000000000006,-0.40858,-0.45303000000000004,-0.2423,-0.009996,0.8678100000000001,1.2216,1.0732,1.1819,1.4328,1.2726,0.97934,0.8433700000000001,1.2266,1.4404,-0.26688,0.47918999999999995,-1.3825,-3.1168,-4.5687,-4.3523,-3.3142,-2.0958,-1.6582,-1.3016,-0.54955,-0.21725,-0.28944000000000003
0,-1.2709,-1.2391,-1.1756,-1.1653,-1.1917,-1.0954,-1.0163,-0.9063700000000001,-0.8208799999999999,-0.68699,-0.6027600000000001,-0.5193800000000001,-0.41123999999999994,-0.31904,-0.2697,-0.29915,-0.19202,-0.19347999999999999,-0.12272000000000001,-0.10845,-0.092126,-0.060677999999999996,-0.039975,-0.009272,0.039918,0.084013,0.079804,0.10853,0.16807,0.15494000000000002,0.19938,0.25163,0.25697,0.3201,0.34595,0.36215,0.43481000000000003,0.45461,0.39278,0.42708,0.48848,0.46183,0.46955,0.55186,0.47123000000000004,0.46678000000000003,0.48836,0.46952,0.46941000000000005,0.40178,0.42539,0.46723000000000003,0.48951000000000006,0.47091000000000005,0.49243000000000003,0.43682,0.38587,0.44167,0.43291999999999997,0.39021999999999996,0.401,0.49681000000000003,0.51108,0.60285,0.77651,0.9268,0.95604,1.0982,1.1986,1.4291,1.4815,1.4162,1.5324,1.3505,1.147,1.0898,0.9279999999999999,0.7145600000000001,0.49226000000000003,0.38151999999999997,0.22776,0.25183,0.28144,0.32272,0.32631,0.27823000000000003,0.36029,0.33463000000000004,0.31064,0.39439,0.43041,0.40224,0.37645,0.43816000000000005,0.53151,0.68897,1.1126,1.1222,1.0764,1.335,1.6422,1.8208,1.7038,1.8284,2.1349,2.4266,0.033293,-0.8665299999999999,-2.4979,-3.5689,-3.4977,-2.8313,-1.9435,-1.8729,-1.4016,-0.7844300000000001,-0.8122,-0.77246,-0.7298600000000001,-0.7085600000000001,-0.79592,-0.7573,-0.74617,-0.75302,-0.7524,-0.71726,-0.75173,-0.78727,-0.8022100000000001,-0.83441,-0.8867799999999999,-0.8758299999999999,-0.90375,-0.9551700000000001,-1.0666,-1.1173,-1.1023,-1.2051,-1.2519,-1.2165
1,0.20425,0.22653,0.27082,0.2289,0.10589000000000001,0.084675,0.34958,0.8397,0.29830999999999996,0.1693,0.23646999999999999,0.2791,0.20407999999999998,0.11615,0.13827,0.24447,0.321,0.31315,0.26805,0.24461,0.24686999999999998,0.2543,0.26242,0.27978000000000003,0.29674,0.29163,0.25795,0.21041999999999997,0.16691,0.13681,0.12673,0.14327,0.18467,0.23385,0.27484000000000003,0.30371,0.33419,0.38626,0.4555,0.51253,0.51949,0.48113999999999996,0.45708999999999994,0.51363,0.66494,0.85116,1.0075,1.1115,1.1802,1.2235,1.2314,1.2166,1.2192,1.276,1.3589,1.3983,1.3574,1.2673,1.206,1.1947,1.1938,1.1367,1.0016,0.8405799999999999,0.71102,0.6482100000000001,0.6159399999999999,0.57597,0.52323,0.49185,0.52179,0.58541,0.61646,0.54481,0.37421,0.16608,-0.037686000000000004,-0.2593,-0.56301,-0.9553,-1.369,-1.7191,-1.9863,-2.2183,-2.4495,-2.6625,-2.8089,-2.8725,-2.8677,-2.8128,-2.7144,-2.5832,-2.4471,-2.3157,-2.1674,-1.9555,-1.6633,-1.3309,-1.0331,-0.8321700000000001,-0.72946,-0.68358,-0.63581,-0.55928,-0.45078,-0.31651999999999997,-0.16824,-0.020881,0.08123,0.12284,0.11392000000000001,0.099603,0.1096,0.13681,0.17255,0.20001,0.22954000000000002,0.2534,0.26703000000000005,0.27335,0.28036,0.2982,0.30305,0.28025,0.22909000000000002,0.1744,0.14115999999999998,0.13681,0.1532,0.16902,0.17895999999999998,0.18545,0.19372999999999999,0.19696,0.19064,0.19430999999999998,0.22773000000000002,0.27681,0.28796,0.24454
0,0.57001,1.4125,1.5888,1.6578,1.4502,1.0553,0.49556000000000006,-0.089115,0.13005999999999998,0.30399,-1.0518,-2.2859,-3.2118,-4.1136,-4.4039,-3.4259,-2.2933,-1.9687,-1.3629,-0.48876000000000003,-0.42439,-0.41328000000000004,-0.37329,-0.36933,-0.29383000000000004,-0.36200000000000004,-0.32603000000000004,-0.39584,-0.37074,-0.47945,-0.44211000000000006,-0.53018,-0.44808000000000003,-0.47894,-0.59531,-0.58343,-0.6211,-0.61112,-0.61434,-0.69493,-0.8271299999999999,-0.82015,-0.87828,-0.8351,-0.87931,-0.90023,-0.8381299999999999,-0.8405799999999999,-0.85808,-0.8360799999999999,-0.7529399999999999,-0.79457,-0.49555,-0.54914,-0.28305,-0.366,-0.28371,-0.13694,-0.22289,-0.12783,-0.15403,0.034138,0.012865000000000001,0.013528,0.009215000000000001,0.039958,0.12622,0.09664400000000001,0.13551,0.11267,0.20096,0.18784,0.1388,0.27248,0.21176999999999999,0.37525,0.33085,0.39116999999999996,0.49377,0.61698,0.67193,0.59892,0.65741,0.55204,0.60192,0.77122,0.67852,0.71503,0.71623,0.71508,0.72228,0.57595,0.60968,0.68594,0.64945,0.63488,0.58428,0.70487,0.62626,0.5521699999999999,0.5232899999999999,0.39682,0.4594,0.39175,0.40096,0.34281999999999996,0.29102,0.43113999999999997,0.51148,0.6701199999999999,0.76293,1.0306,1.2439,1.237,1.3985,1.6938,1.9426,2.0567,1.8626,1.2299,1.1051,1.0979999999999999,0.79081,0.33965,-0.043542000000000004,-0.20859,-0.15004,-0.036446,-0.061042,-0.10765999999999999,-0.18147,-0.074156,-0.034259,-0.12866,-0.09310700000000001,-0.052324,0.076956,-0.029161000000000003,0.13263,0.094261
1,0.69382,0.7362,0.72814,0.7006100000000001,0.743,0.76,0.82525,0.86044,0.81587,0.8705299999999999,0.87515,0.81209,0.71596,0.69433,0.84793,0.9345399999999999,0.9705,0.8879,0.68518,0.57535,0.44802,0.36582,0.45258000000000004,0.49848000000000003,0.31235,-0.062143,-0.57415,-1.1704,-1.9947,-2.6884,-3.4928,-4.1622,-3.7024,-3.6454,-1.7988,0.21316,-0.29596,-0.7955800000000001,-1.5889,-2.0177,-2.3696,-2.4925,-2.445,-2.2983,-2.0321,-1.6646,-1.1643,-0.78677,-0.65917,-0.59501,-0.45793999999999996,-0.25053000000000003,-0.007222,0.1669,0.20711999999999997,0.16904,0.16938,0.19789,0.16492,0.14017000000000002,0.1567,0.1463,0.16362000000000002,0.18864,0.14995,0.17393,0.19341,0.16521,0.22166,0.22332,0.16708,0.17622000000000002,0.19822,0.15411,0.086264,0.11205999999999999,0.13668,0.13688,0.16451,0.12869,0.10132000000000001,0.13838,0.12120999999999998,0.11912,0.12358,0.043282999999999995,0.07849,0.15016,0.12752,0.11628,0.076754,0.071269,0.08567999999999999,0.064475,0.10280999999999998,0.14881,0.11313,0.051900999999999996,0.067026,0.1241,0.19062,0.23781999999999998,0.19705999999999999,0.23435,0.32377,0.31089,0.31988,0.34979,0.3848,0.44178999999999996,0.45833,0.48293,0.54974,0.59458,0.574,0.53515,0.53777,0.57636,0.6081300000000001,0.59649,0.58475,0.51946,0.48899,0.6164,0.59729,0.5444899999999999,0.64666,0.60048,0.54737,0.634,0.60798,0.5788800000000001,0.6522100000000001,0.63366,0.6166699999999999,0.65664,0.6484800000000001,0.6550600000000001,0.68333,0.68813
1,-0.057839999999999996,-0.1417,-0.09098300000000001,-0.16777,-0.24198000000000003,-0.13648,-0.179,-0.28606,-0.26206999999999997,-0.34692,-0.30961,-0.32709,-0.2727,-0.27874,-0.24303000000000002,-0.19782,-0.35035,-0.3228,-0.19337000000000001,-0.16560999999999998,-0.1175,-0.057548,-0.046854,0.032662000000000004,0.11404,0.121,0.1762,0.23095,0.31693000000000005,0.34959,0.32971999999999996,0.41606000000000004,0.42688999999999994,0.46525,0.48963999999999996,0.4515,0.49338999999999994,0.5351600000000001,0.5634899999999999,0.56607,0.5876600000000001,0.6435,0.6230399999999999,0.5697,0.6501899999999999,0.59696,0.6311100000000001,0.64768,0.69072,0.66291,0.66943,0.7084600000000001,0.6661,0.68662,0.72965,0.7292,0.74988,0.7688699999999999,0.79437,0.78875,0.8338399999999999,0.8296399999999999,0.9042899999999999,0.95245,1.0048,0.9557399999999999,0.9773700000000001,1.0206,1.0008,1.0837,1.0603,1.084,1.1709,1.1213,1.1736,1.1336,1.1276,1.0177,0.81033,0.7862100000000001,0.73343,0.7282,0.6492399999999999,0.49963,0.23223000000000002,-0.0039,-0.14544,-0.071739,-0.07964700000000001,-0.42096000000000006,-0.74667,-1.3297,-1.9156,-2.5308,-3.1737,-3.9130000000000003,-3.5058,-2.509,-1.3517,0.7086600000000001,-0.38873,-1.3738,-2.0011,-2.6881,-2.9960000000000004,-2.8776,-2.4602,-1.7973,-1.3572,-1.0042,-0.92058,-0.67545,-0.24479,0.096445,0.19632,0.15120999999999998,0.13671,0.22615,0.22838000000000003,0.25444,0.23315999999999998,0.20145,0.17588,0.19386,0.24588000000000002,0.18065,0.23049,0.23066,0.14135999999999999,0.092972,0.13367,0.16714,0.14664000000000002,0.10962999999999999,0.058904,0.066817,0.057412,0.020945,0.06755,-0.041943
0,0.21995,0.3216,0.18209,0.25398000000000004,0.32035,0.3366,0.42368,0.5043,0.5070399999999999,0.46062,0.4927,0.59128,0.42608,0.43296,0.39731,0.50352,0.37577,0.30716,0.42901000000000006,0.36829,0.24877,0.19125,0.15503,0.08302799999999999,-0.023674,0.036075,0.043521,-0.074918,-0.050013999999999996,-0.11325999999999999,0.060699,-0.005397,0.13342,0.45698999999999995,0.55614,0.7923399999999999,0.98764,1.2023,1.6043,1.6994,1.5568,1.4093,1.1891,0.9615299999999999,0.76868,0.34181,0.070591,-0.31956999999999997,-0.6909,-0.9600700000000001,-1.0139,-1.1369,-1.1007,-1.1876,-1.1612,-1.2195,-1.2346,-1.192,-1.1561,-1.2323,-1.28,-1.2545,-1.1569,-1.0817,-0.80923,-0.0048259999999999996,0.78238,0.95242,1.5182,1.9011,1.5519,0.55487,-0.20276,-0.60226,-0.36623,-1.9605,2.7596,0.35934,-2.5711,-4.4617,-4.4566,-3.6342,-2.4178,-1.1532,-0.84515,-0.26500999999999997,0.57501,0.77372,0.70014,0.6484,0.76982,0.65141,0.58038,0.5996199999999999,0.50137,0.50515,0.48846000000000006,0.47973999999999994,0.42232,0.31971,0.40851,0.22515,0.1964,0.23248000000000002,0.07222200000000001,0.068064,-0.035644,-0.1243,-0.29354,-0.4375,-0.25442,-0.37265,-0.36128000000000005,-0.42475,-0.47078000000000003,-0.39815,-0.29333000000000004,-0.34615,-0.23873000000000003,-0.012574,0.011748999999999999,0.013728,0.14225,0.25773,0.15771,0.33041,0.30478,0.30253,0.33999,0.16088,0.22645,0.25624,0.27624,0.1248,0.26697,0.33150999999999997,0.28142,0.14762999999999998,0.27488,0.25149
0,-0.000901,0.046446,0.068937,0.022108000000000003,0.09424500000000001,0.085704,0.16307,0.16418,0.13652999999999998,0.18954000000000001,0.24475,0.34321,0.25582,0.31011,0.39335,0.34046,0.47296000000000005,0.55602,0.63041,0.60229,0.5331600000000001,0.5967,0.76151,0.60545,0.73387,0.69852,0.67935,0.61439,0.59744,0.54488,0.5252,0.52317,0.48486,0.49053,0.4531,0.37501999999999996,0.37101,0.48005,0.4253,0.50881,0.68848,0.8355799999999999,0.9802200000000001,1.1706,1.3241,1.5856,1.7161,1.9341,1.9404,1.8566,1.798,1.6119,1.4325,1.1168,0.86855,0.4839,0.10959,-0.12714,-0.31816,-0.39046,-0.23713,-0.33024000000000003,-0.36411,-0.39237,-0.40264,-0.35864,-0.42113999999999996,-0.32743,-0.38766999999999996,-0.47891999999999996,-0.42738000000000004,-0.33768000000000004,-0.27742,-0.24918,0.12691,0.7574,0.8538100000000001,0.8794299999999999,1.0265,1.0747,0.8469399999999999,0.5736899999999999,0.8579899999999999,1.2024,0.61324,-1.6556,0.80394,-1.1069,-2.8541,-3.8987,-4.1531,-3.9972,-3.2909,-2.1894,-1.5823,-1.4197,-0.7762399999999999,-0.36467,-0.35131999999999997,-0.2821,-0.3281,-0.24445,-0.27204,-0.25296,-0.21698,-0.29822,-0.30901,-0.31776,-0.37636,-0.40968999999999994,-0.37895999999999996,-0.43217,-0.47256000000000004,-0.45052,-0.47193999999999997,-0.50832,-0.63612,-0.57614,-0.64786,-0.65472,-0.66189,-0.64607,-0.57513,-0.5815,-0.56128,-0.56831,-0.45493999999999996,-0.43892,-0.32415,-0.21698,-0.22141,-0.14778,-0.06339,0.022359,-0.053923,0.036558999999999994,0.062545,0.0129,0.17092000000000002,0.023649
0,1.4186,1.6294,1.7316,1.6558,1.5317,1.4293,1.2687,1.0972,0.80821,0.6409600000000001,0.27293,0.032276,-0.12342,-0.15414,-0.15705,-0.23415999999999998,-0.11804,-0.078453,-0.21533000000000002,-0.21744000000000002,-0.25266,-0.19538,-0.14146,-0.23078,-0.10490999999999999,-0.073831,0.13545,0.5310199999999999,1.065,1.0706,1.4699,1.9026,1.9632,1.6221,1.2878,1.365,1.5045,-0.29045,0.39124000000000003,-1.2153,-2.5893,-4.021,-4.5256,-3.8656,-2.5822,-1.9168,-1.5693,-0.74416,-0.34515999999999997,-0.37215,-0.37533,-0.29698,-0.2899,-0.26935,-0.28626,-0.35821,-0.37295,-0.39487,-0.31835,-0.3958,-0.48406000000000005,-0.44988999999999996,-0.55708,-0.58133,-0.63635,-0.61335,-0.70119,-0.81334,-0.7897,-0.8270200000000001,-0.8939299999999999,-0.88775,-0.9382299999999999,-0.9217200000000001,-0.93804,-0.87175,-0.8574200000000001,-0.76241,-0.7558,-0.66182,-0.55882,-0.5220899999999999,-0.38885,-0.34336,-0.20685,-0.13742000000000001,-0.14162,-0.13831,-0.1144,-0.11433,-0.07372999999999999,-0.029480000000000003,-0.04925,-0.09578099999999999,0.022219,-0.025177,0.00903,-0.039143,-0.037358999999999996,0.027327999999999998,0.049345,0.13241,0.20895999999999998,0.21959,0.29733000000000004,0.29907,0.34554,0.40258,0.44806,0.5564600000000001,0.48778,0.60725,0.70189,0.61503,0.67111,0.77954,0.59856,0.56916,0.61369,0.5955199999999999,0.5854699999999999,0.4375,0.46284,0.49785,0.40991000000000005,0.41452,0.36418,0.42413999999999996,0.43143000000000004,0.31314000000000003,0.35641,0.37524,0.29643,0.31739,0.43098000000000003,0.54582,0.73248,0.9699,1.0885,1.1135
0,-0.2189,-0.20327,-0.239,-0.14718,-0.22230999999999998,-0.17665999999999998,-0.20533,-0.085615,-0.050495,-0.05508300000000001,0.18257,0.9851200000000001,1.6552,1.5733,1.8939,2.2067,2.2188,1.4413,0.35649000000000003,0.86054,0.85801,-1.349,-2.5433,-3.6851,-4.2771,-3.5191,-2.2332,-1.6399,-1.368,-0.23611999999999997,-0.076511,-0.13905,-0.059435,-0.024978,-0.15625,-0.13443,-0.12395999999999999,-0.19186,-0.19287,-0.31078,-0.30818,-0.43578999999999996,-0.35784,-0.42027,-0.41553999999999996,-0.47502,-0.54997,-0.54402,-0.71336,-0.82535,-0.85004,-0.81491,-0.96014,-1.0172,-1.093,-1.1462,-1.1425,-1.2097,-1.1028,-1.1435,-1.1032,-1.0632,-1.1009,-0.9649399999999999,-0.81255,-0.63344,-0.57047,-0.3727,-0.21113,-0.2295,-0.1718,-0.049022,-0.071117,-0.19000999999999998,-0.036657999999999996,0.088772,0.045375,0.09688300000000001,0.014234,0.000787,0.088407,0.21731999999999999,0.16922,0.17802,0.1996,0.22391,0.223,0.2744,0.32522,0.46926999999999996,0.58176,0.46343999999999996,0.53086,0.59822,0.51682,0.60422,0.62521,0.44393999999999995,0.6059399999999999,0.69435,0.43123999999999996,0.62263,0.46692,0.37387,0.3675,0.31985,0.34893,0.41375,0.37837,0.30818,0.3624,0.16323,0.26476,0.21535,0.21179,0.23568000000000003,0.25306999999999996,0.3145,0.24001,0.38119000000000003,0.5585600000000001,0.92712,1.1087,1.2197,1.2525,1.5149,1.8826,1.8953,1.8746,1.6598,1.2805,1.1053,1.0178,0.94273,0.49336,0.12803,-0.19459,-0.1921,-0.28433,-0.40368000000000004
0,-0.45643,-0.41713,-0.37961,-0.44266000000000005,-0.48196000000000006,-0.49328999999999995,-0.47968,-0.39474000000000004,-0.45575,-0.5702699999999999,-0.47471,-0.4522,-0.57872,-0.63675,-0.6883699999999999,-0.6894399999999999,-0.68025,-0.66733,-0.65684,-0.8511,-0.7659,-0.89041,-0.7462300000000001,-0.6885600000000001,-0.75788,-0.7842600000000001,-0.73847,-0.62663,-0.58321,-0.5636800000000001,-0.37783,-0.34920999999999996,-0.47388,-0.35751,-0.25188,-0.11485999999999999,-0.15658,-0.09567300000000001,-0.11004000000000001,-0.10972,-0.16809000000000002,-0.048669,-0.029779000000000003,-0.033686,0.017217,0.042975,0.058876,0.16627999999999998,0.19624,0.23303000000000001,0.39463000000000004,0.43593999999999994,0.5599,0.6292399999999999,0.5384800000000001,0.6278600000000001,0.66578,0.8285899999999999,0.6999,0.73798,0.80102,0.8305100000000001,0.9148799999999999,0.8806299999999999,0.8628299999999999,0.9515,0.84885,0.86845,0.9197,0.8653700000000001,0.86303,0.74146,0.62879,0.63856,0.72314,0.56358,0.69981,0.72015,0.60733,0.9042600000000001,1.0125,1.177,1.3508,1.5595,1.6674,1.7684,2.2819,2.0407,2.0133,1.9377,1.6451,1.3886,1.138,1.0051,0.6683,0.19807,-0.21531,-0.2236,-0.10619,-0.09249500000000001,-0.09668600000000001,-0.23661999999999997,-0.18505,-0.17190999999999998,-0.14545,-0.30862,-0.2324,-0.14376,-0.20438,-0.18600000000000003,0.016984,0.18967,0.7289800000000001,1.5671,1.3938,1.0259,0.49198000000000003,-0.28155,-0.8028,-0.86272,-0.24881999999999999,0.24928000000000003,-0.9813299999999999,0.25926,-0.75037,-2.0218,-2.8265,-3.6162,-3.9113,-3.2873,-2.2233,-1.6427,-1.5387,-0.6952699999999999,-0.38565,-0.4519,-0.40376,-0.44556999999999997,-0.29930999999999996,-0.44681000000000004
1,0.78546,0.7861100000000001,0.7548699999999999,0.7346,0.77608,0.67765,0.5384399999999999,0.5849300000000001,0.58138,0.50171,0.50636,0.43445,0.36044,0.43158,0.41768,0.36095,0.35104,0.22730999999999998,0.26916999999999996,0.27857,0.33876999999999996,0.33816999999999997,0.30788000000000004,0.41144,0.42196000000000006,0.46007,0.4142,0.3385,0.39166,0.42486,0.48302,0.4853,0.44165,0.49088999999999994,0.51641,0.44658000000000003,0.39325,0.37578,0.41576,0.49426000000000003,0.4486,0.36605,0.36112,0.31077,0.33176,0.38016,0.32127,0.34044,0.30988000000000004,0.27049,0.22532,0.25763,0.28862,0.22048,0.2044,0.24056999999999998,0.26175,0.19946,0.18555,0.14585,0.1288,0.24078000000000002,0.18102000000000001,0.26843,0.26373,0.20103,0.31805,0.32425,0.2203,0.21588000000000002,0.25389,0.23254,0.25179,0.19213,0.14978,0.2247,0.19959000000000002,0.22005999999999998,0.16547,0.14048,0.11223,0.09335700000000001,0.08362,-0.043267,-0.047484,-0.18902,-0.36413,-0.2785,-0.2494,-0.38731,-0.53696,-0.5715100000000001,-0.71141,-0.76868,-0.6593399999999999,-0.5914699999999999,-0.76112,-1.0534,-1.4764,-1.9429,-2.5731,-3.2903,-4.0816,-4.2078,-3.8395,-2.5541,-1.8442,-1.0233,0.13937,-1.0506,-1.6602,-1.8866,-1.9225,-1.9395,-1.8386,-1.6280000000000001,-1.0631,-0.29488000000000003,0.10927,0.11713,0.39066999999999996,0.77095,1.0194,1.0258,0.9693,0.9164,1.0474,0.93147,0.94427,0.9374600000000001,0.92471,0.97965,0.9338299999999999,0.99185,0.92563,0.83078,0.8267100000000001,0.82625,0.8464,0.8243
0,2.116,1.7994,1.9563,1.6137,1.2366,0.082178,-0.27044,0.65183,1.4969999999999999,0.35957,-1.6536,-3.0933,-4.2445,-4.9747,-4.1641,-2.5177,-1.7182,-1.3351,0.01745,0.19213,0.12319000000000001,0.073996,-0.037424,0.14001,0.11595,0.091879,0.028229,0.14195,-0.015406,-0.096241,-0.11354000000000002,-0.1837,-0.1405,-0.36432,-0.24545999999999998,-0.26892,-0.43265,-0.56608,-0.63169,-0.62427,-0.7316,-0.7870199999999999,-0.8818,-1.0201,-0.93411,-0.97073,-1.1303,-1.0108,-0.9036299999999999,-1.0270000000000001,-0.8969,-0.78374,-0.54584,-0.47563,-0.37296999999999997,-0.26166,-0.20715,-0.11383,-0.1329,-0.051236000000000004,-0.11802,-0.11690999999999999,0.02504,-0.016411000000000002,0.058763,0.072969,0.052064,0.045785,0.048704000000000004,-0.07387200000000001,0.10799,0.11987,0.12494000000000001,0.17401,0.24531,0.39845,0.33657,0.37578,0.42083999999999994,0.5254800000000001,0.60104,0.5882,0.60578,0.5997399999999999,0.78482,0.67187,0.64876,0.60104,0.61482,0.50797,0.54528,0.47379,0.53523,0.38232,0.42358999999999997,0.51043,0.33099,0.34703,0.29764,0.34970999999999997,0.28561,0.28299,0.32206999999999997,0.23235,0.22426,0.26892,0.29624,0.25794,0.34549,0.27144,0.36341,0.69522,0.76577,0.80928,1.1962,1.5092,1.4681,1.3231,0.9112,0.77242,0.73025,0.83193,0.69803,0.4116,-0.055099,-0.36557,-0.25246999999999997,-0.26191,-0.22735999999999998,-0.17961,-0.19235,-0.23885,-0.14747000000000002,-0.13777999999999999,-0.097027,-0.034619,0.052371,0.050487,0.61663,1.6639
1,-0.8224600000000001,-0.69977,-0.50185,-0.091786,0.35771,0.52961,0.5365,0.5312,0.49133999999999994,0.50439,0.53351,0.54418,0.5876399999999999,0.5746399999999999,0.51664,0.53797,0.55995,0.55777,0.5746399999999999,0.53041,0.48776,0.4986,0.45525,0.40804,0.41153,0.40037,0.43463,0.44156000000000006,0.36638000000000004,0.36254000000000003,0.35658,0.30229,0.31396999999999997,0.32473,0.29136999999999996,0.26626,0.21631999999999998,0.20596,0.19977999999999999,0.096552,0.074259,0.10305999999999998,0.034427,-0.008483,-0.019215,-0.044000000000000004,0.008103,0.025419,-0.07096000000000001,-0.11408,-0.089374,-0.041891000000000005,-0.0041789999999999996,-0.050134,-0.064388,0.014483000000000001,0.026563999999999997,-0.0123,0.012343000000000002,0.075098,0.18569000000000002,0.26765,0.19969,0.2206,0.37339,0.36375,0.37479,0.46529,0.44969,0.49133999999999994,0.56286,0.58892,0.62854,0.65795,0.63293,0.5987899999999999,0.7086899999999999,0.7529100000000001,0.65795,0.68499,0.7198899999999999,0.74068,0.7899,0.74125,0.7129800000000001,0.7568600000000001,0.74748,0.68982,0.72043,0.7995,0.79128,0.79361,0.80037,0.76208,0.77862,0.76984,0.73334,0.81224,0.86621,0.78487,0.73333,0.6921,0.55719,0.40804,0.345,0.36925,0.35555,0.34912,0.28308,0.10674000000000002,0.031971,-0.12693,-0.22439,0.033169,0.17912,0.020328,-0.27537,-0.71349,-1.2789,-1.8314,-2.2755,-2.8587,-3.3509,-3.5697,-3.1241,-1.8913,-1.1692,0.26368,0.8245600000000001,0.017588,-0.48357,-1.2770000000000001,-2.0791,-2.7992,-3.1815,-3.2053,-2.9344,-2.3653,-1.6746,-1.105
1,0.1732,0.3387,0.30735,0.16923,0.2799,0.46871,0.43648000000000003,0.43282,0.5646399999999999,0.53179,0.5735899999999999,0.60792,0.54503,0.61778,0.58858,0.52025,0.54614,0.5403100000000001,0.5242399999999999,0.54891,0.58901,0.62543,0.64179,0.54299,0.5442600000000001,0.59097,0.52407,0.59795,0.57976,0.521,0.62061,0.61179,0.59012,0.6068899999999999,0.55471,0.5727800000000001,0.6235,0.58913,0.56992,0.58499,0.6247199999999999,0.64346,0.6460199999999999,0.68998,0.6884,0.66181,0.68216,0.66371,0.56452,0.57998,0.5787800000000001,0.43878,0.51537,0.58759,0.57484,0.55958,0.43655,0.43249,0.40144,0.45203000000000004,0.70867,0.7689199999999999,0.6452600000000001,0.31018,-0.34415,-0.93404,-1.4417,-2.3209,-3.0582,-3.5768,-3.8611,-2.8967,-2.5974,-0.9942200000000001,0.017491,-1.1261,-2.0171,-2.6453,-2.6633,-2.8074,-2.6957,-2.6218,-2.4125,-2.0486,-1.4494,-0.7179300000000001,-0.46351000000000003,-0.39704,-0.18997999999999998,0.09084099999999999,0.34954,0.36788000000000004,0.27,0.33063000000000003,0.31633,0.22059,0.30761,0.32534,0.24673,0.28815,0.32365,0.39696,0.37583,0.28151,0.32176,0.32105,0.31306,0.30726,0.24253000000000002,0.26749,0.29104,0.22854000000000002,0.25305,0.28981999999999997,0.25801999999999997,0.2784,0.18400999999999998,0.14523,0.31424,0.21352,0.18635,0.28206,0.19030999999999998,0.15804,0.095027,0.1386,0.18395999999999998,0.11589,0.13997,0.13452999999999998,0.11008,0.10847000000000001,0.048204000000000004,0.025719,0.10089,0.11108,0.046501,0.09526799999999999,0.22864,0.19077
1,-1.8973,-2.5376,-3.1592,-3.7464,-3.7897,-3.3278,-2.6989,-1.7178,-1.74,-0.8637299999999999,0.55115,-0.024452,-0.5060899999999999,-1.2158,-1.7493,-2.0828,-2.3761,-2.4923,-2.4034,-2.2196,-1.9681,-1.555,-0.9592700000000001,-0.53,-0.42733999999999994,-0.34262,-0.08943,0.19172999999999998,0.38445999999999997,0.50571,0.47,0.39014,0.40858,0.40986999999999996,0.43821000000000004,0.47415,0.48851999999999995,0.5333100000000001,0.4874,0.41467,0.41847,0.39985,0.37653000000000003,0.46129,0.55279,0.5281100000000001,0.51807,0.46541000000000005,0.39198,0.45593,0.40845,0.31567,0.37459000000000003,0.33807,0.27814,0.35799000000000003,0.35670999999999997,0.32347,0.35913,0.31301,0.29185,0.32291,0.27836,0.23195,0.26764,0.27314,0.18763,0.21791,0.27455999999999997,0.25127,0.25329,0.25856,0.34943,0.32019000000000003,0.23745,0.37961,0.44773,0.46746000000000004,0.5041,0.42441,0.39266999999999996,0.43773999999999996,0.47352,0.53757,0.57315,0.5694100000000001,0.57201,0.5404100000000001,0.53891,0.5191,0.50292,0.55024,0.5257,0.54065,0.61443,0.53606,0.46341000000000004,0.49838999999999994,0.47163,0.47185,0.44367,0.43735,0.54688,0.49554,0.45743999999999996,0.52887,0.55721,0.60322,0.62373,0.60811,0.55305,0.51436,0.55494,0.58444,0.617,0.65799,0.5828899999999999,0.56118,0.65385,0.63556,0.61847,0.61344,0.57994,0.51388,0.39681,0.48839,0.63044,0.56866,0.45303000000000004,0.38117,0.35658,0.28881,0.17894000000000002,0.20106,0.3365,0.33331,0.084134,-0.31794,-0.83668,-1.3771
0,-0.5029,-0.49249,-0.57322,-0.6248100000000001,-0.56629,-0.48654,-0.36123,-0.5929,-0.5869300000000001,-0.45966,-0.49587,-0.54028,-0.23828000000000002,0.44269,1.1127,0.93516,0.9126,1.1641,1.1916,0.9017299999999999,0.42006000000000004,-0.033381,0.36496999999999996,-1.5559,0.39071,-1.565,-3.1891,-4.875,-4.5219,-3.2785,-1.8427,-1.567,-1.0436,-0.15764,-0.036992000000000004,-0.11333,-0.081477,0.007922,0.029383,-0.10280999999999998,-0.045326,-0.10345,-0.17731,-0.12880999999999998,-0.22029,-0.15934,-0.30194,-0.26673,-0.20661,-0.3194,-0.42444,-0.46762,-0.37022,-0.60325,-0.55686,-0.57405,-0.7278600000000001,-0.7228100000000001,-0.86939,-0.9768,-0.88155,-0.94055,-0.9575,-0.9828,-0.9095,-0.92765,-0.83315,-0.61061,-0.5944,-0.42636,-0.27807,-0.14707,0.012366,0.065623,0.11627,0.11914000000000001,0.18619000000000002,0.27831999999999996,0.25153000000000003,0.28964,0.18599000000000002,0.23584000000000002,0.3627,0.31568,0.37592,0.34826999999999997,0.40131,0.40751,0.49123999999999995,0.45087,0.36706,0.4831,0.65669,0.65278,0.50344,0.63813,0.6340100000000001,0.64239,0.81442,0.77453,0.6905899999999999,0.6146,0.5956100000000001,0.69877,0.68485,0.6533899999999999,0.63,0.59065,0.5053,0.43151000000000006,0.32354,0.39066,0.50131,0.40986000000000006,0.38959,0.42011000000000004,0.37761999999999996,0.35996,0.26006999999999997,0.33983,0.46595,0.64668,0.70815,0.93319,0.9209299999999999,1.1275,1.4642,1.8384,2.0243,1.8481,1.9827,1.7166,1.4057,1.2003,0.82824,0.5059600000000001,-0.06592100000000001,-0.25671,-0.43504,-0.46408
0,-0.1429,0.61363,1.1611,1.2084,1.6186,1.6545,1.3149,1.1713,1.2119,2.1001,-0.15461,0.9963,-1.9488,-3.2578,-4.0412,-4.3233,-3.7430000000000003,-2.2938,-1.3595,-1.3513,-0.47481999999999996,0.03812,-0.067359,0.04988,0.046668,0.014081999999999999,-0.057925,0.004385,-0.068627,-0.008205,0.042122,-0.037301,-0.18225,-0.18874000000000002,-0.17259000000000002,-0.23413,-0.26527,-0.34715999999999997,-0.48933000000000004,-0.45624,-0.49296,-0.6401399999999999,-0.64153,-0.74756,-0.76783,-0.68048,-0.76076,-0.71667,-0.7868,-0.79953,-0.66241,-0.6278600000000001,-0.60556,-0.49551000000000006,-0.36319,-0.40517,-0.17313,-0.06639,-0.18206,-0.072493,-0.10051,-0.010452,0.040338,0.006567,0.085273,0.075306,0.045839,0.16635,0.11319000000000001,0.10162,0.14628,0.25277,0.2525,0.20747,0.21093,0.27815,0.3797,0.49778999999999995,0.4007,0.45231000000000005,0.59829,0.5141899999999999,0.48795,0.48252,0.46818999999999994,0.47917,0.52891,0.48833000000000004,0.35586,0.40784000000000004,0.3325,0.36782,0.24474,0.28226999999999997,0.3462,0.21889,0.21325999999999998,0.16995,0.13074000000000002,0.14559,0.24594000000000002,0.29112,0.26795,0.25373,0.22951,0.1681,0.14649,0.20808000000000001,0.54574,0.68834,0.92879,1.1789,1.2633,1.6292,2.0797,2.2263,2.06,1.9042,1.6142,1.3665,1.063,0.60805,0.29078000000000004,-0.064222,-0.4809,-0.5061100000000001,-0.48806000000000005,-0.5331199999999999,-0.76181,-0.64869,-0.49458,-0.60478,-0.60273,-0.59888,-0.55533,-0.60106,-0.56174,-0.51715,-0.56166,-0.4342
0,0.62841,0.54185,0.5853,0.5329699999999999,0.5685,0.46617,0.5035,0.5028699999999999,0.50656,0.47422,0.51139,0.4521,0.36829,0.49306000000000005,0.49345,0.40746,0.42617,0.41488,0.33918000000000004,0.57412,0.89386,1.2717,1.2878,1.5835,1.8224,2.2513,2.3982,2.3774,2.1842,1.9766,1.7509,1.4214,0.83883,0.17021,0.028671,-0.10493,-0.035474,-0.079088,-0.10869000000000001,-0.17332999999999998,-0.11740999999999999,-0.095332,-0.078551,-0.060766999999999995,-0.14764000000000002,-0.051861000000000004,-0.01399,0.010094,0.058859,0.36184,1.101,1.2926,1.07,1.4009,1.1918,0.6530600000000001,0.061462,0.48673,0.082044,-0.15355,-1.5736,-2.7782,-3.5331,-3.9679,-3.2761,-2.2903,-1.7286,-1.1033,-0.39899,-0.23278000000000001,-0.35867,-0.33078,-0.28371999999999997,-0.31496999999999997,-0.42926000000000003,-0.4544,-0.39093,-0.47198999999999997,-0.38345,-0.42382,-0.55771,-0.54852,-0.59317,-0.70898,-0.64398,-0.7982199999999999,-0.72195,-0.7522399999999999,-0.7630100000000001,-0.84065,-0.91489,-0.95149,-1.0056,-1.0448,-1.1041,-1.0863,-1.1626,-1.1725,-1.1179,-0.9470000000000001,-0.8921899999999999,-0.9398299999999999,-0.74255,-0.64103,-0.43456000000000006,-0.49521000000000004,-0.39027,-0.22699999999999998,-0.10904000000000001,-0.1638,-0.1526,-0.10116,-0.11621,-0.046195,-0.045476,0.031824,-0.020248,0.072452,0.018491999999999998,0.024302,0.12558,0.058757000000000004,0.10839000000000001,0.07824,0.13709000000000002,0.24975,0.30651,0.34475,0.37385,0.54285,0.59115,0.62185,0.66286,0.6946399999999999,0.6837,0.67879,0.70854,0.73882,0.60795,0.61945
0,0.07512200000000001,-0.048966,-0.074284,-0.093774,-0.056785,-0.13921,-0.11744,-0.1285,-0.064292,-0.076071,-0.049397,-0.074513,-0.11254000000000002,-0.10580999999999999,-0.10567,0.014993000000000001,0.40365999999999996,0.9335600000000001,1.1529,1.239,1.6198,1.8299,1.6198,1.238,1.0095,1.2574,0.3845,0.031222000000000003,-1.3755,-2.9385,-4.3366,-4.5953,-3.7612,-2.6372,-1.8437,-1.5755,-0.83252,-0.25397,-0.29074,-0.24503000000000003,-0.29909,-0.26983,-0.31098000000000003,-0.37153,-0.27676999999999996,-0.3829,-0.39093,-0.39936,-0.4138,-0.44765,-0.4794,-0.55382,-0.51161,-0.6047399999999999,-0.63994,-0.75227,-0.76771,-0.80101,-0.8822399999999999,-0.8673,-0.94975,-0.97911,-0.93615,-0.95481,-0.93096,-0.9197700000000001,-0.77193,-0.76753,-0.71514,-0.5795399999999999,-0.46513000000000004,-0.35268,-0.32022,-0.16435999999999998,-0.096934,-0.1417,-0.11059000000000001,-0.061592999999999995,-0.052052999999999995,-0.09108200000000001,-0.026014,0.003143,0.001367,-0.063786,-0.018532,0.043281,0.12458,0.08091799999999999,0.11555,0.13825,0.16291,0.29128000000000004,0.30901999999999996,0.30879,0.30709000000000003,0.37675,0.40275,0.49578999999999995,0.47373999999999994,0.5582199999999999,0.5805,0.62484,0.5783,0.71183,0.57891,0.6661199999999999,0.5638,0.5914699999999999,0.64588,0.56686,0.5734,0.48244,0.53087,0.51002,0.49377,0.40912,0.35375,0.39087,0.39085,0.42357,0.2857,0.32625,0.48393,0.43513,0.64798,0.8644,0.9549700000000001,1.109,1.264,1.5235,1.6627,1.5181,1.5498,1.4728,1.2194,1.0385,0.9760700000000001,0.8331200000000001,0.61793,0.37200000000000005
0,0.30357,0.31573,0.34631999999999996,0.37626,0.29133000000000003,0.33213000000000004,0.31049,0.27241,0.28083,0.35736999999999997,0.44782,0.52117,0.6821699999999999,0.73072,0.93174,0.9841799999999999,1.1461,1.3896,1.6519,1.6422,1.5699,1.5053,1.3681,1.2476,1.0622,0.91299,0.53427,0.22878,-0.004792,-0.082899,-0.018028,-0.059329,-0.06290499999999999,-0.046609,-0.040751,-0.058549000000000004,0.048219,0.030378,-0.005519,0.011359999999999999,0.013477000000000001,0.025738,0.15241,0.21325,0.5697399999999999,1.1054,1.1647,1.2173,1.5425,1.5924,1.4151,1.3507,1.6166,2.1548,0.7920699999999999,1.3736,0.33776999999999996,-1.7776,-3.3538,-4.1031,-4.0177,-3.4472,-2.5279,-1.8472,-1.6327,-1.088,-0.51651,-0.40196,-0.49013999999999996,-0.5019600000000001,-0.46276000000000006,-0.44996,-0.44619,-0.48144,-0.53903,-0.59851,-0.54051,-0.52915,-0.54492,-0.51759,-0.63351,-0.60331,-0.68597,-0.74484,-0.73841,-0.8283200000000001,-0.77615,-0.8157800000000001,-0.84941,-0.95421,-0.9441200000000001,-0.89879,-0.8939799999999999,-0.9216799999999999,-0.83481,-0.7260300000000001,-0.69266,-0.60688,-0.5512100000000001,-0.46348,-0.36327,-0.28407,-0.29197,-0.15663,-0.069415,0.043658999999999996,-0.08892,-0.039996,-0.063717,-0.044448,0.010785,-0.011253,-0.014706,0.049306,0.05719199999999999,0.12522,0.12567,0.18623,0.20863,0.21341999999999997,0.22946999999999998,0.24644000000000002,0.27213000000000004,0.32716999999999996,0.37756,0.40147,0.44747,0.43261000000000005,0.5191600000000001,0.48833000000000004,0.5307,0.5203899999999999,0.45193999999999995,0.47971,0.48388000000000003,0.40847,0.47021999999999997,0.4096,0.40707,0.39278
0,0.27702,0.2609,0.36309,0.47851000000000005,0.31335,0.35252,0.37765,0.41484,0.4617,0.45905,0.38858000000000004,0.43786,0.3933,0.37249,0.28559,0.42513,0.4673,0.40765999999999997,0.53875,0.42581,0.57473,0.52686,0.611,0.57493,0.49882,0.6201800000000001,0.43749,0.43157,0.47523000000000004,0.42958,0.35170999999999997,0.32075,0.20299,0.40101,0.19765,0.21404,0.17812999999999998,0.054840999999999994,0.021778,0.057621000000000006,-0.056219000000000005,0.061970000000000004,0.026525,-0.049355,-0.13855,-0.27285,-0.10897000000000001,-0.22325,-0.17793,0.09084400000000001,0.3511,0.71628,0.68666,0.98219,1.1286,1.5451,1.7671,1.6033,1.5072,1.0256,0.85496,0.56213,0.1086,-0.15882000000000002,-0.70395,-0.9904299999999999,-1.2324,-1.256,-1.3206,-1.4901,-1.3256,-1.462,-1.3614,-1.4213,-1.4767,-1.5115,-1.5198,-1.4634,-1.5505,-1.5668,-1.4982,-1.072,-0.24047,-0.017969,0.059905999999999994,0.27326999999999996,0.46497,0.26643,0.3856,0.5578,1.6531,-1.2109,2.9652,-1.3840000000000001,-3.4358,-4.2058,-3.7060000000000004,-2.5621,-1.0465,-0.46653999999999995,-0.10144,0.8898799999999999,1.1515,1.1267,1.0886,0.87398,1.0921,0.9403,0.91581,0.9451799999999999,1.0055,0.8587899999999999,0.77505,0.63836,0.6543899999999999,0.5512699999999999,0.3663,0.29091,0.2759,0.1667,-0.015553999999999998,-0.059088999999999996,-0.090879,-0.20742,-0.35462,-0.36418,-0.49646999999999997,-0.53235,-0.58729,-0.65113,-0.58894,-0.59338,-0.55315,-0.4305,-0.35883000000000004,-0.17234000000000002,-0.07169,0.041947000000000005,0.22463000000000002,0.31374
1,0.9551700000000001,1.036,1.0125,1.0759999999999998,1.0401,1.0685,1.0559,1.014,0.98919,0.87251,0.71735,0.6679,0.7309399999999999,0.7156,0.61682,0.5210100000000001,0.38423,0.20452,0.2261,0.3115,0.26986,-0.074285,-0.54737,-1.1939,-1.78,-2.2714,-2.9083,-3.6219,-3.4899,-2.7226,-1.5307,-0.772,-0.11015,0.9037799999999999,-0.23201,-1.5228,-2.4436,-3.0018,-3.0449,-2.8636,-2.5933,-2.0463,-1.5030000000000001,-0.99082,-0.78672,-0.7155699999999999,-0.3619,0.043942,0.23560999999999999,0.33813000000000004,0.25995999999999997,0.23081,0.1984,0.19175,0.25479,0.28891999999999995,0.23568000000000003,0.21268,0.23112,0.20324,0.24481999999999998,0.21101,0.13909000000000002,0.14243,0.16424,0.21028000000000002,0.09287999999999999,0.05143,0.04718,0.013178,0.014577000000000001,0.020468,0.040527999999999995,-0.025222,-0.041539,-0.005292,-0.042062,-0.08140900000000001,-0.096562,-0.14612999999999998,-0.24946999999999997,-0.17064000000000001,-0.1525,-0.22605999999999998,-0.32329,-0.30188000000000004,-0.24235,-0.25577,-0.23874,-0.26347,-0.2615,-0.24563000000000001,-0.18182,-0.11704,-0.089068,-0.010659,-0.09577000000000001,0.012078,0.11762,0.13585999999999998,0.16824,0.23629,0.24868,0.29521,0.4101,0.46011,0.43182,0.44451999999999997,0.51803,0.48867,0.53822,0.57734,0.57665,0.59741,0.58701,0.57701,0.68399,0.69423,0.6514300000000001,0.68262,0.68623,0.68898,0.68294,0.66359,0.7245199999999999,0.77184,0.75208,0.77474,0.74625,0.82011,0.71287,0.73783,0.87626,0.88654,0.9207700000000001,0.88045,0.90981,0.95414,0.98321,0.9798
0,0.16480999999999998,0.020955,0.23201,0.2058,0.17862999999999998,0.2515,0.2263,0.38543,0.37942,0.39492,0.5539,0.69104,0.5152,0.70282,0.6327,0.8700200000000001,0.71329,0.75975,0.87335,0.8471700000000001,0.8177399999999999,0.78837,0.77441,0.6279,0.6874,0.68838,0.6255,0.69302,0.54402,0.52457,0.53678,0.43838999999999995,0.46792,0.27383,0.27059,0.42435,0.31243000000000004,0.38105,0.32931,0.3519,0.31847,0.23001999999999997,0.2631,0.25531,0.31526,0.26441,0.31471,0.53689,0.82291,0.9695799999999999,1.1188,1.1528,1.5331,1.5754,1.3941,0.86934,0.70968,0.7098899999999999,0.7106600000000001,0.72606,0.57798,0.15472,-0.30599,-0.39006,-0.38361999999999996,-0.35589,-0.39396,-0.31077,-0.36491,-0.38806999999999997,-0.27229000000000003,-0.35667,-0.34952,-0.36944,-0.24693,-0.16332,0.27019,1.054,1.2147,1.6257,1.545,1.5151,0.9244700000000001,0.25637,0.8504799999999999,1.4955,-0.91258,-2.9112,-4.0265,-4.9042,-4.3419,-2.6701,-1.7453,-1.5124,-0.27396,0.12525999999999998,0.008812,0.004164,0.097207,0.085819,0.09587000000000001,0.11997000000000001,0.043392,-0.026054,-0.064198,-0.19505999999999998,-0.20565,-0.29366,-0.34421,-0.3001,-0.42176,-0.50154,-0.52453,-0.57347,-0.74495,-0.70326,-0.80175,-0.9503299999999999,-1.0693,-1.0785,-1.0022,-1.0568,-1.0418,-1.1928,-1.0254,-0.9939,-0.86965,-0.78608,-0.67943,-0.52354,-0.31761999999999996,-0.27902,-0.27496,-0.053594,-0.13326,-0.029214999999999998,-0.059434,-0.029835000000000004,0.039094,0.04512
0,1.9817,1.6837,1.4619,1.4380000000000002,1.2043,0.8143100000000001,0.45753,-0.10152,-0.39676,-0.45126000000000005,-0.36285,-0.40633,-0.40268000000000004,-0.47026,-0.49051000000000006,-0.36626,-0.43777,-0.58305,-0.3607,-0.25579,-0.14079,-0.37504,-0.1656,0.54387,1.2143,1.0391,1.6449,2.1261,2.1229,1.4214,0.25848000000000004,0.61745,2.049,0.56212,-1.3966,-2.7924,-3.8715,-4.3139,-3.2529,-1.8651,-1.6833,-1.1601,-0.13660999999999998,-0.09300499999999999,-0.036432,0.037596,-0.025936,-0.021655,-0.13673,-0.18943,-0.12422000000000001,-0.16535999999999998,-0.094623,-0.18117,-0.29355,-0.32136,-0.40281999999999996,-0.43405,-0.45428,-0.42508,-0.5039899999999999,-0.64117,-0.7424,-0.74792,-0.81213,-0.9197700000000001,-0.9488200000000001,-1.0077,-1.0457,-0.97688,-1.1554,-1.0535,-1.038,-1.1508,-1.041,-0.8390299999999999,-0.8567,-0.76074,-0.49365,-0.48346000000000006,-0.33303,-0.34398,-0.21675999999999998,-0.20813,0.040574,0.035107,-0.1053,0.14196,-0.006915999999999999,0.075695,0.062417999999999994,0.085997,0.12322000000000001,0.1181,0.17387,0.020127000000000003,0.087232,0.20708000000000001,0.18299,0.23933000000000001,0.22173,0.35655,0.34567,0.41189,0.46223000000000003,0.38524,0.43361000000000005,0.5426,0.55735,0.5574399999999999,0.6449199999999999,0.62145,0.51968,0.60732,0.5904699999999999,0.51641,0.46526000000000006,0.38353000000000004,0.38836,0.44872,0.28399,0.47485,0.32614,0.30867,0.29495,0.13289,0.27458,0.21004,0.055628,0.27119,0.42518999999999996,0.31514000000000003,0.53258,0.9438,1.197,1.2405,1.2211,1.6735,2.0199,2.1375
0,-0.5518,-0.61647,-0.67992,-0.70415,-0.5868,-0.60683,-0.8952,-0.86356,-0.6513800000000001,-0.67847,-0.55287,-0.45711999999999997,-0.30796,-0.39291,-0.16794,0.034594,0.30906999999999996,0.43683999999999995,0.44251,0.36238000000000004,0.14226,-0.026376999999999998,-0.22735,-0.31239,-0.41512,-0.76867,-1.0309,-1.2858,-1.4529,-1.3654,-1.4421,-1.4065,-1.5356,-1.4176,-1.5195,-1.5561,-1.3629,-1.4072,-1.5072,-1.3822,-1.2301,-1.4121,-1.3435,-1.2173,-1.0066,-0.63637,-0.15977,0.060663999999999996,-0.17973,-0.53656,-0.96803,-1.3699,-1.8052,-2.2858,-2.0833,-2.4221,1.4642,0.21328000000000003,0.15811,-0.49178,-0.31356,-0.076187,0.8474200000000001,1.3974,1.3428,1.702,2.033,2.0664,1.9618,1.7695,1.9215,1.8422,1.7593,1.7894,1.6854,1.5891,1.5533,1.4796,1.476,1.4428,1.2827,1.2993,1.2773,1.2465,1.0386,1.0078,1.0479,0.9777399999999999,0.93622,0.8261299999999999,0.74364,0.6602100000000001,0.68325,0.48223999999999995,0.50265,0.52823,0.6580199999999999,0.63364,0.60873,0.6352399999999999,0.57458,0.48585,0.57743,0.73019,0.43821000000000004,0.49436,0.48075,0.30759000000000003,0.38658000000000003,0.32429,0.29056,0.20788,0.11490999999999998,0.30575,0.14928,-0.07016499999999999,0.02396,0.055524000000000004,-0.048297,-0.21241999999999997,-0.1471,-0.097433,-0.26465,-0.23529,-0.32469000000000003,-0.30864,-0.22501,-0.27562,-0.34559,-0.41313999999999995,-0.20936999999999997,-0.26666999999999996,-0.36935999999999997,-0.36019,-0.41546000000000005,-0.29641999999999996,-0.32927,-0.45271000000000006,-0.44905,-0.51746
1,0.28321,0.1974,0.26641,0.31355,0.34178000000000003,0.36657,0.37337,0.42045,0.49258,0.49362,0.4377,0.47253999999999996,0.56042,0.5513399999999999,0.55506,0.65146,0.628,0.56558,0.6008,0.57872,0.5748,0.57191,0.48833000000000004,0.5292399999999999,0.62453,0.5853,0.54694,0.5671,0.56575,0.5967,0.63637,0.61129,0.58408,0.53675,0.43206000000000006,0.35813,0.29699000000000003,0.2241,0.25401999999999997,0.31711999999999996,0.25217,0.13514,0.098604,0.031249000000000002,-0.15082,-0.19676,-0.08986,-0.09188099999999999,-0.18429,-0.33560999999999996,-0.69571,-1.3654,-2.0841,-2.6141,-3.2973,-3.8818,-4.2337,-3.8832,-2.7417,-2.376,-0.87036,0.29498,-0.65184,-1.3147,-1.8361,-1.9302,-1.9953,-2.1106,-2.0980000000000003,-1.8397,-1.4467,-1.0626,-0.60885,-0.28811,-0.26058000000000003,-0.27431,-0.043849,0.33299999999999996,0.53742,0.60228,0.57899,0.52468,0.60458,0.59305,0.5585,0.65937,0.62649,0.56521,0.61924,0.63786,0.62056,0.60819,0.58936,0.59178,0.63021,0.65645,0.6479600000000001,0.60758,0.54078,0.5351899999999999,0.5511699999999999,0.5041800000000001,0.50473,0.50267,0.45503999999999994,0.47171,0.49028999999999995,0.5159199999999999,0.5586399999999999,0.5250199999999999,0.43687,0.40074,0.4642,0.45678,0.32813000000000003,0.28779,0.32743,0.32539,0.31540999999999997,0.34861,0.34892,0.28625,0.2876,0.26557,0.22141999999999998,0.28618000000000005,0.25985,0.18867,0.20731,0.15922999999999998,0.12877,0.20343,0.218,0.20665999999999998,0.22489,0.20315,0.22915,0.23518000000000003,0.24577,0.34453
0,0.67987,0.79268,0.9111100000000001,1.136,1.337,1.5035,1.7590000000000001,2.0517,2.3405,2.2713,2.0999,2.0211,1.8204,1.4711,1.1821,1.0295,0.59655,0.19319,-0.18047,-0.21549000000000001,-0.24085,-0.38445999999999997,-0.42312,-0.49563999999999997,-0.46742,-0.3798,-0.44672,-0.41447,-0.43582,-0.35183000000000003,-0.3569,-0.30739,-0.31234,-0.27337,0.009777,0.6147,1.1568,0.9421200000000001,0.53169,-0.14979,-0.9465600000000001,-1.0625,-0.69468,0.44215,-0.10603,0.31167,-1.6283,-3.2295,-3.8676,-4.0257,-3.9548,-3.3812,-2.2144,-1.4805,-1.3909,-0.86587,-0.38024,-0.28069,-0.26016999999999996,-0.30398000000000003,-0.26911,-0.31651,-0.36876,-0.35294000000000003,-0.3154,-0.22198,-0.32329,-0.38168,-0.24961999999999998,-0.30756,-0.14473,-0.22266,-0.3357,-0.25986,-0.32595999999999997,-0.26642,-0.26375,-0.35548,-0.30556,-0.35707,-0.37304,-0.34371,-0.27951,-0.22234,-0.33245,-0.18419000000000002,-0.10837000000000001,-0.077361,0.055913,0.032837,4.4e-05,0.12234,0.071811,0.2281,0.20168,0.058316,0.11585999999999999,0.11648,0.073516,0.15022,0.15633,0.096452,0.12794,0.19372,0.18154,0.15433,0.17365999999999998,0.16334,0.24268,0.16008,0.20765,0.30129,0.26248,0.28681,0.273,0.3913,0.31125,0.3284,0.32684,0.41789,0.34895,0.47957,0.45868000000000003,0.27021,0.49365,0.4328,0.47576,0.41678000000000004,0.42816000000000004,0.48121,0.47426,0.52165,0.47394,0.41513,0.38364000000000004,0.3955,0.46003,0.42591,0.2491,0.49995
0,0.069582,0.10017999999999999,0.30656,0.21646999999999997,0.080447,0.026674,-0.068476,0.014655000000000001,0.095881,0.023957,0.04143,-0.10805999999999999,-0.04746,-0.17351,-0.11900999999999999,0.064502,-0.046444,0.09122899999999999,0.053592999999999995,0.051662,0.016133,0.24316999999999997,0.30872,0.30827,0.25905,0.26864,0.27843,0.37795,0.41428999999999994,0.39738,0.36556,0.3779,0.28773000000000004,0.39294,0.56968,0.54042,0.30408,0.38311999999999996,0.32168,0.29409,0.30618,0.24761,0.38395,0.36719,0.42458,0.47413,0.37703000000000003,0.32711999999999997,0.42945,0.40963,0.43665,0.6300899999999999,0.7792899999999999,0.77905,0.64494,0.59342,0.60925,0.63303,0.59334,0.52751,0.6213,0.73175,0.5161100000000001,0.45823,0.41962,0.38094,0.39344,0.51007,0.40425,0.5199199999999999,0.36933,0.32003000000000004,0.54201,0.53041,0.6115,0.75258,0.94739,1.2513,1.4139,1.7066,1.942,2.0579,1.9015,1.7623,1.4312,1.1955,0.8991899999999999,0.66289,0.49028999999999995,0.052446000000000007,-0.39592,-0.6685300000000001,-0.83189,-0.6439699999999999,-0.75448,-0.7420899999999999,-0.8348200000000001,-0.71385,-0.80207,-0.78795,-0.75089,-0.86361,-0.75716,-0.9381200000000001,-1.1314,-0.89189,-0.69113,-0.13948,0.50159,0.46656000000000003,0.08544500000000001,-0.94383,-1.9144,-2.4584,-2.636,-2.161,-1.1309,-1.9054,0.18020999999999998,-0.79896,-2.0846,-3.4726,-3.9742,-3.8337,-3.0429,-1.6459,-0.74352,-0.73483,0.00933,0.31358,0.24756999999999998,0.19784000000000002,0.20698000000000003,0.20331,0.18517999999999998,0.19591,0.18236,0.12261,0.26815,0.30117
0,0.71891,0.6280399999999999,0.5815100000000001,0.54548,0.55486,0.5057,0.52837,0.51982,0.4229,0.41717,0.40945,0.34747,0.40747,0.2593,0.16443,0.2684,0.21791999999999997,0.21785,0.15822,0.12470999999999999,0.17054,0.23476999999999998,0.27346,0.26384,0.40428000000000003,0.65349,0.9908899999999999,1.2096,1.3357,1.3998,1.7398,1.8745,1.7266,1.8026,1.5747,1.2742,1.1975,0.7875,0.43528,0.058425,-0.16772,-0.15068,-0.32426,-0.25822,-0.31465,-0.24754,-0.2228,-0.24044000000000001,-0.24663000000000002,-0.31178,-0.24222,-0.33263000000000004,-0.2087,-0.17839000000000002,-0.09488200000000001,0.18515,0.9457200000000001,1.3675,1.2596,1.2346,0.86508,0.59199,0.63144,0.98403,0.8886700000000001,-2.1724,0.16558,-2.9175,-4.2962,-4.5369,-4.3907,-2.9675,-1.7919999999999998,-1.5383,-0.9756299999999999,-0.14074,-0.24514,-0.15378,-0.097197,-0.2123,-0.15997999999999998,-0.11367000000000001,-0.13859000000000002,-0.16947,-0.099785,-0.17068,-0.21141,-0.25064000000000003,-0.2872,-0.23953000000000002,-0.33307,-0.31713,-0.39011999999999997,-0.43615,-0.5121899999999999,-0.5957899999999999,-0.5824199999999999,-0.69071,-0.69707,-0.69414,-0.80113,-0.7642399999999999,-0.80582,-0.75955,-0.75089,-0.7592800000000001,-0.54252,-0.58791,-0.46558,-0.38123,-0.35194000000000003,-0.22029,-0.17062,-0.071673,-0.021026,0.04542,0.10435,0.025304,0.048224,0.14376,0.071238,0.060453999999999994,0.13525,0.22789,0.14452,0.21583000000000002,0.19557,0.22127,0.35619,0.29596999999999996,0.44036000000000003,0.47025,0.47495,0.56639,0.49668,0.55975,0.68243,0.61803,0.64584,0.75063
1,0.8877200000000001,0.8746,0.8836700000000001,0.91032,0.88936,0.90809,0.9549,0.9641200000000001,0.9277799999999999,0.84019,0.80074,0.8915299999999999,0.9647600000000001,0.91261,0.85954,0.83821,0.72746,0.59927,0.59335,0.6330100000000001,0.5744100000000001,0.48585,0.39833,0.20353,0.083097,0.051274,-0.051489,0.085346,0.29201,0.17382,0.029136000000000002,-0.21395,-0.81766,-1.4234,-1.8261,-2.2965,-2.8795,-3.4275,-3.534,-2.8839,-2.0955,-1.0484,-0.001213,-0.10375,0.41883000000000004,0.86924,0.14211,-0.60019,-1.5721,-2.2976,-2.725,-2.9241,-2.8098,-2.5633,-2.2748,-1.8418,-1.4222,-1.0736,-0.7544,-0.65776,-0.6110800000000001,-0.33535,0.002316,0.23315999999999998,0.34001,0.35648,0.35495,0.35728000000000004,0.36083000000000004,0.38019000000000003,0.37693000000000004,0.34176,0.35086999999999996,0.3781,0.35631,0.34807,0.37484,0.40071,0.41173000000000004,0.39105,0.33589,0.28688,0.298,0.32383,0.28376,0.2597,0.27936,0.29243,0.31968,0.2986,0.23665999999999998,0.23678000000000002,0.24643,0.237,0.21816,0.20118,0.22150999999999998,0.20601,0.15979000000000002,0.16376,0.13228,0.044835,0.037599,0.053425,0.003517,0.006881999999999999,0.033769,0.046037,0.11448,0.10450999999999999,0.038118,0.04844,0.064416,0.094439,0.13459000000000002,0.12558,0.17017000000000002,0.27152,0.29422,0.25854,0.28119,0.34334000000000003,0.3952,0.45461999999999997,0.48893000000000003,0.48781,0.5394800000000001,0.60841,0.6482100000000001,0.7225600000000001,0.76679,0.75357,0.75429,0.76926,0.83231,0.86918,0.83425,0.8423700000000001,0.85136,0.85629
0,1.5991,0.9321200000000001,0.64518,0.47529,0.49908,0.5613600000000001,0.50731,0.16196,-0.43486,-0.7679699999999999,-1.1081,-1.0616,-0.9714799999999999,-0.92165,-1.015,-1.2699,-1.1834,-1.2365,-1.0563,-1.2293,-1.1686,-1.261,-1.1338,-0.70834,0.06260399999999999,0.39487,0.5081899999999999,1.3114,1.1978,1.2708,-0.0007379999999999999,0.21065,0.45976999999999996,3.0738,1.4079,-1.3762,-3.1213,-4.371,-4.7647,-3.7541,-2.0038,-1.6173,-1.1742,0.14685,0.40947,0.35123000000000004,0.45363000000000003,0.33132,0.3032,0.30545,0.43603000000000003,0.40433,0.32453000000000004,0.3095,0.19103,0.31706,0.047994999999999996,0.026148,0.12842,0.060941999999999996,-0.18131,-0.25408000000000003,-0.19738,-0.19912,-0.25406,-0.55795,-0.48358,-0.5996600000000001,-0.74666,-0.62474,-0.74857,-0.7133,-0.63262,-0.61726,-0.6276,-0.42838999999999994,-0.46601000000000004,-0.39829000000000003,-0.17651,0.060873000000000003,0.15195,0.14777,0.25361999999999996,0.34647,0.30643000000000004,0.39826,0.47994,0.49478999999999995,0.34248,0.41953,0.6000800000000001,0.44961999999999996,0.43633999999999995,0.40205,0.53879,0.46681999999999996,0.43801,0.5452199999999999,0.46723000000000003,0.5846600000000001,0.4114,0.60582,0.53965,0.65391,0.7139,0.6532600000000001,0.8331,0.6993199999999999,0.85919,0.74743,0.80142,0.77746,0.55937,0.56862,0.80013,0.63274,0.48943000000000003,0.6090800000000001,0.40414,0.36066,0.22441999999999998,0.35843,0.41063999999999995,0.27534000000000003,0.077726,0.13595,0.13004000000000002,0.044536,0.087613,-0.10629000000000001,-0.13835,0.051065,0.097883,0.1822,0.41631,0.72363,0.8446899999999999,0.75508,0.74747,1.4226
